# OpenSignals Text File Format. Version 1
# {"98:D3:41:FD:4F:0D": {"position": 0, "device": "bitalino_rev", "device name": "98:D3:41:FD:4F:0D", "device connection": "BTH98:D3:41:FD:4F:0D", "sampling rate": 1000, "resolution": [4, 1, 1, 1, 1, 10, 10, 10, 10, 6, 6], "firmware version": 1282, "comments": "", "keywords": "", "mode": 0, "sync interval": 2, "date": "2024-4-19", "time": "10:25:46.288", "channels": [1, 2, 3, 4, 5, 6], "sensor": ["RAW", "ECGBIT", "RAW", "RAW", "RAW", "RAW"], "label": ["A1", "A2", "A3", "A4", "A5", "A6"], "column": ["nSeq", "I1", "I2", "O1", "O2", "A1", "A2", "A3", "A4", "A5", "A6"], "special": [{}, {}, {}, {}, {}, {}], "digital IO": [0, 0, 1, 1], "convertedValues": 0}}
# EndOfHeader
0	0	0	0	0	505	489	0	543	39	4	
1	0	0	0	0	502	479	0	540	39	4	
2	0	0	0	0	510	473	0	541	39	4	
3	0	0	0	0	503	472	0	536	39	4	
4	0	0	0	0	501	478	0	533	39	4	
5	0	0	0	0	499	479	0	534	39	4	
6	0	0	0	0	505	476	0	532	39	4	
7	0	0	0	0	508	483	0	533	39	4	
8	0	0	0	0	506	490	0	522	39	4	
9	0	0	0	0	513	493	0	518	39	4	
10	0	0	0	0	499	488	0	520	39	4	
11	0	0	0	0	504	485	0	518	39	4	
12	0	0	0	0	500	482	0	524	39	4	
13	0	0	0	0	508	490	0	523	39	4	
14	0	0	0	0	509	493	0	526	39	4	
15	0	0	0	0	502	490	0	524	39	4	
0	0	0	0	0	496	489	0	519	39	4	
1	0	0	0	0	497	492	0	518	39	4	
2	0	0	0	0	499	497	0	515	39	4	
3	0	0	0	0	509	506	0	515	39	4	
4	0	0	0	0	506	515	0	519	39	4	
5	0	0	0	0	508	515	0	526	39	4	
6	0	0	0	0	502	508	0	551	39	4	
7	0	0	0	0	502	496	0	568	39	4	
8	0	0	0	0	496	492	0	585	39	4	
9	0	0	0	0	504	494	0	595	39	4	
10	0	0	0	0	504	491	0	592	39	4	
11	0	0	0	0	501	495	0	605	39	4	
12	0	0	0	0	503	502	0	600	39	4	
13	0	0	0	0	510	505	0	583	39	4	
14	0	0	0	0	506	515	0	580	39	4	
15	0	0	0	0	502	514	0	585	39	4	
0	0	0	0	0	504	513	0	574	39	4	
1	0	0	0	0	506	505	0	561	39	4	
2	0	0	0	0	507	497	0	558	39	4	
3	0	0	0	0	499	498	0	551	39	4	
4	0	0	0	0	499	499	0	542	39	4	
5	0	0	0	0	502	495	0	536	39	4	
6	0	0	0	0	505	491	0	531	39	4	
7	0	0	0	0	510	489	0	524	39	4	
8	0	0	0	0	509	486	0	524	39	4	
9	0	0	0	0	508	482	0	518	39	4	
10	0	0	0	0	507	482	0	523	39	4	
11	0	0	0	0	504	483	0	543	39	4	
12	0	0	0	0	507	481	0	552	39	4	
13	0	0	0	0	492	487	0	551	39	4	
14	0	0	0	0	502	493	0	551	39	4	
15	0	0	0	0	500	499	0	569	39	4	
0	0	0	0	0	506	501	0	569	39	4	
1	0	0	0	0	502	500	0	556	39	4	
2	0	0	0	0	510	506	0	545	39	4	
3	0	0	0	0	507	511	0	536	39	4	
4	0	0	0	0	500	507	0	531	39	4	
5	0	0	0	0	505	506	0	524	39	4	
6	0	0	0	0	512	517	0	531	39	4	
7	0	0	0	0	505	520	0	517	39	4	
8	0	0	0	0	499	514	0	518	39	4	
9	0	0	0	0	498	508	0	537	39	4	
10	0	0	0	0	498	500	0	543	39	4	
11	0	0	0	0	500	494	0	537	39	4	
12	0	0	0	0	496	503	0	535	39	4	
13	0	0	0	0	500	503	0	526	39	4	
14	0	0	0	0	510	498	0	528	39	4	
15	0	0	0	0	511	500	0	541	39	4	
0	0	0	0	0	506	502	0	547	39	4	
1	0	0	0	0	502	503	0	554	39	4	
2	0	0	0	0	501	498	0	569	39	4	
3	0	0	0	0	505	493	0	581	39	4	
4	0	0	0	0	503	489	0	556	39	4	
5	0	0	0	0	507	487	0	554	39	4	
6	0	0	0	0	509	488	0	546	39	4	
7	0	0	0	0	505	490	0	535	39	4	
8	0	0	0	0	505	485	0	532	39	4	
9	0	0	0	0	502	479	0	546	39	4	
10	0	0	0	0	503	480	0	556	39	4	
11	0	0	0	0	504	482	0	566	39	4	
12	0	0	0	0	501	478	0	580	39	4	
13	0	0	0	0	499	473	0	580	39	4	
14	0	0	0	0	499	471	0	592	39	4	
15	0	0	0	0	519	473	0	579	39	4	
0	0	0	0	0	502	482	0	562	39	4	
1	0	0	0	0	500	494	0	543	39	4	
2	0	0	0	0	505	496	0	531	39	4	
3	0	0	0	0	503	502	0	522	39	4	
4	0	0	0	0	503	503	0	514	39	4	
5	0	0	0	0	503	497	0	514	39	4	
6	0	0	0	0	505	497	0	506	39	4	
7	0	0	0	0	503	497	0	509	39	4	
8	0	0	0	0	507	496	0	505	39	4	
9	0	0	0	0	505	488	0	522	39	4	
10	0	0	0	0	504	486	0	543	39	4	
11	0	0	0	0	505	483	0	545	39	4	
12	0	0	0	0	499	484	0	541	39	4	
13	0	0	0	0	500	484	0	551	39	4	
14	0	0	0	0	505	481	0	556	39	4	
15	0	0	0	0	503	484	0	556	39	4	
0	0	0	0	0	499	485	0	562	39	4	
1	0	0	0	0	498	493	0	553	39	4	
2	0	0	0	0	496	498	0	537	39	4	
3	0	0	0	0	506	497	0	521	39	4	
4	0	0	0	0	505	505	0	526	39	4	
5	0	0	0	0	500	517	0	540	39	4	
6	0	0	0	0	509	529	0	537	39	4	
7	0	0	0	0	504	534	0	527	39	4	
8	0	0	0	0	499	534	0	529	39	4	
9	0	0	0	0	496	528	0	532	39	4	
10	0	0	0	0	507	527	0	535	39	4	
11	0	0	0	0	504	533	0	550	39	4	
12	0	0	0	0	497	539	0	548	39	4	
13	0	0	0	0	504	543	0	555	39	4	
14	0	0	0	0	503	542	0	560	39	4	
15	0	0	0	0	511	529	0	556	39	4	
0	0	0	0	0	501	521	0	561	39	4	
1	0	0	0	0	501	512	0	552	39	4	
2	0	0	0	0	498	504	0	555	39	4	
3	0	0	0	0	496	500	0	563	39	4	
4	0	0	0	0	505	496	0	561	39	4	
5	0	0	0	0	493	494	0	570	39	4	
6	0	0	0	0	511	496	0	567	39	4	
7	0	0	0	0	504	497	0	567	39	4	
8	0	0	0	0	502	505	0	565	39	4	
9	0	0	0	0	510	510	0	555	39	4	
10	0	0	0	0	500	508	0	562	39	4	
11	0	0	0	0	509	503	0	555	39	4	
12	0	0	0	0	499	503	0	558	39	4	
13	0	0	0	0	500	504	0	560	39	4	
14	0	0	0	0	504	506	0	552	39	4	
15	0	0	0	0	502	508	0	560	39	4	
0	0	0	0	0	505	508	0	544	39	4	
1	0	0	0	0	505	508	0	547	39	4	
2	0	0	0	0	503	513	0	548	39	4	
3	0	0	0	0	511	516	0	547	39	4	
4	0	0	0	0	497	513	0	556	39	4	
5	0	0	0	0	506	508	0	551	39	4	
6	0	0	0	0	514	502	0	533	39	4	
7	0	0	0	0	502	502	0	514	39	4	
8	0	0	0	0	504	500	0	500	39	4	
9	0	0	0	0	501	498	0	513	39	4	
10	0	0	0	0	496	496	0	517	39	4	
11	0	0	0	0	503	492	0	530	39	4	
12	0	0	0	0	499	492	0	544	39	4	
13	0	0	0	0	499	490	0	542	39	4	
14	0	0	0	0	502	487	0	557	39	4	
15	0	0	0	0	502	491	0	551	39	4	
0	0	0	0	0	501	492	0	555	39	4	
1	0	0	0	0	505	492	0	553	39	4	
2	0	0	0	0	508	497	0	550	39	4	
3	0	0	0	0	500	508	0	559	39	4	
4	0	0	0	0	511	526	0	552	39	4	
5	0	0	0	0	508	528	0	534	39	4	
6	0	0	0	0	502	529	0	519	39	4	
7	0	0	0	0	502	532	0	503	39	4	
8	0	0	0	0	503	536	0	501	39	4	
9	0	0	0	0	507	537	0	516	39	4	
10	0	0	0	0	508	538	0	525	39	4	
11	0	0	0	0	500	535	0	524	39	4	
12	0	0	0	0	503	536	0	512	39	4	
13	0	0	0	0	503	535	0	506	39	4	
14	0	0	0	0	505	535	0	498	39	4	
15	0	0	0	0	505	533	0	488	39	4	
0	0	0	0	0	514	530	0	502	39	4	
1	0	0	0	0	495	521	0	515	39	4	
2	0	0	0	0	498	513	0	525	39	4	
3	0	0	0	0	502	511	0	537	39	4	
4	0	0	0	0	510	520	0	541	39	4	
5	0	0	0	0	504	531	0	532	39	4	
6	0	0	0	0	506	532	0	529	39	4	
7	0	0	0	0	500	527	0	543	39	4	
8	0	0	0	0	503	521	0	546	39	4	
9	0	0	0	0	502	515	0	553	39	4	
10	0	0	0	0	504	511	0	560	39	4	
11	0	0	0	0	505	505	0	560	39	4	
12	0	0	0	0	501	501	0	570	39	4	
13	0	0	0	0	503	496	0	566	39	4	
14	0	0	0	0	505	491	0	563	39	4	
15	0	0	0	0	501	493	0	560	39	4	
0	0	0	0	0	508	491	0	552	39	4	
1	0	0	0	0	495	484	0	557	39	4	
2	0	0	0	0	504	482	0	550	39	4	
3	0	0	0	0	500	488	0	554	39	4	
4	0	0	0	0	509	500	0	570	39	4	
5	0	0	0	0	505	519	0	551	39	4	
6	0	0	0	0	499	538	0	560	39	4	
7	0	0	0	0	501	536	0	550	39	4	
8	0	0	0	0	504	527	0	532	39	4	
9	0	0	0	0	508	523	0	520	39	4	
10	0	0	0	0	507	514	0	505	39	4	
11	0	0	0	0	496	499	0	499	39	4	
12	0	0	0	0	503	480	0	491	39	4	
13	0	0	0	0	507	462	0	484	39	4	
14	0	0	0	0	503	457	0	486	39	4	
15	0	0	0	0	502	463	0	481	39	4	
0	0	0	0	0	504	473	0	487	39	4	
1	0	0	0	0	494	484	0	504	39	4	
2	0	0	0	0	511	499	0	518	39	4	
3	0	0	0	0	501	497	0	533	39	4	
4	0	0	0	0	497	495	0	546	39	4	
5	0	0	0	0	501	502	0	545	39	4	
6	0	0	0	0	501	511	0	529	39	4	
7	0	0	0	0	512	510	0	507	39	4	
8	0	0	0	0	508	503	0	506	39	4	
9	0	0	0	0	489	505	0	519	39	4	
10	0	0	0	0	505	513	0	536	39	4	
11	0	0	0	0	501	515	0	542	39	4	
12	0	0	0	0	511	516	0	550	39	4	
13	0	0	0	0	500	521	0	553	39	4	
14	0	0	0	0	500	520	0	560	39	4	
15	0	0	0	0	506	520	0	555	39	4	
0	0	0	0	0	499	526	0	557	39	4	
1	0	0	0	0	502	529	0	552	39	4	
2	0	0	0	0	505	527	0	536	39	4	
3	0	0	0	0	510	522	0	527	39	4	
4	0	0	0	0	507	514	0	535	39	4	
5	0	0	0	0	502	501	0	534	39	4	
6	0	0	0	0	511	498	0	520	39	4	
7	0	0	0	0	500	503	0	506	39	4	
8	0	0	0	0	497	499	0	487	39	4	
9	0	0	0	0	499	496	0	476	39	4	
10	0	0	0	0	500	497	0	470	39	4	
11	0	0	0	0	507	489	0	464	39	4	
12	0	0	0	0	506	488	0	468	39	4	
13	0	0	0	0	505	498	0	466	39	4	
14	0	0	0	0	504	503	0	475	39	4	
15	0	0	0	0	494	504	0	470	39	4	
0	0	0	0	0	504	506	0	465	39	4	
1	0	0	0	0	508	506	0	466	39	4	
2	0	0	0	0	504	503	0	464	39	4	
3	0	0	0	0	503	499	0	465	39	4	
4	0	0	0	0	502	498	0	467	39	4	
5	0	0	0	0	497	505	0	463	39	4	
6	0	0	0	0	500	518	0	468	39	4	
7	0	0	0	0	496	523	0	468	39	4	
8	0	0	0	0	501	531	0	467	39	4	
9	0	0	0	0	504	536	0	467	39	4	
10	0	0	0	0	509	535	0	461	39	4	
11	0	0	0	0	500	524	0	467	39	4	
12	0	0	0	0	505	504	0	468	39	4	
13	0	0	0	0	503	496	0	470	39	4	
14	0	0	0	0	497	493	0	472	39	4	
15	0	0	0	0	503	494	0	467	39	4	
0	0	0	0	0	500	498	0	480	39	4	
1	0	0	0	0	499	500	0	500	39	4	
2	0	0	0	0	507	498	0	508	39	4	
3	0	0	0	0	502	495	0	500	39	4	
4	0	0	0	0	511	494	0	490	39	4	
5	0	0	0	0	507	499	0	488	39	4	
6	0	0	0	0	508	496	0	482	39	4	
7	0	0	0	0	511	499	0	478	39	4	
8	0	0	0	0	500	506	0	477	39	4	
9	0	0	0	0	505	511	0	465	39	4	
10	0	0	0	0	497	516	0	469	39	4	
11	0	0	0	0	503	517	0	467	39	4	
12	0	0	0	0	504	521	0	468	39	4	
13	0	0	0	0	503	527	0	469	39	4	
14	0	0	0	0	504	530	0	465	39	4	
15	0	0	0	0	502	519	0	468	39	4	
0	0	0	0	0	497	500	0	463	39	4	
1	0	0	0	0	500	497	0	461	39	4	
2	0	0	0	0	501	500	0	462	39	4	
3	0	0	0	0	508	505	0	459	39	4	
4	0	0	0	0	507	513	0	463	39	4	
5	0	0	0	0	501	518	0	464	39	4	
6	0	0	0	0	492	527	0	470	39	4	
7	0	0	0	0	504	545	0	472	39	4	
8	0	0	0	0	511	562	0	467	39	4	
9	0	0	0	0	504	573	0	484	39	4	
10	0	0	0	0	494	572	0	508	39	4	
11	0	0	0	0	499	567	0	519	39	4	
12	0	0	0	0	509	568	0	533	39	4	
13	0	0	0	0	505	580	0	538	39	4	
14	0	0	0	0	497	601	0	528	39	4	
15	0	0	0	0	506	612	0	506	39	4	
0	0	0	0	0	504	606	0	489	39	4	
1	0	0	0	0	508	595	0	475	39	4	
2	0	0	0	0	502	589	0	462	39	4	
3	0	0	0	0	499	588	0	464	39	4	
4	0	0	0	0	496	589	0	462	39	4	
5	0	0	0	0	502	592	0	464	39	4	
6	0	0	0	0	503	590	0	465	39	4	
7	0	0	0	0	511	583	0	462	39	4	
8	0	0	0	0	498	573	0	463	39	4	
9	0	0	0	0	506	568	0	457	39	4	
10	0	0	0	0	496	563	0	462	39	4	
11	0	0	0	0	496	557	0	465	39	4	
12	0	0	0	0	502	551	0	463	39	4	
13	0	0	0	0	501	548	0	468	39	4	
14	0	0	0	0	503	541	0	470	39	4	
15	0	0	0	0	505	524	0	471	39	4	
0	0	0	0	0	505	506	0	469	39	4	
1	0	0	0	0	505	490	0	462	39	4	
2	0	0	0	0	504	476	0	485	39	4	
3	0	0	0	0	501	462	0	471	39	4	
4	0	0	0	0	495	444	0	474	39	4	
5	0	0	0	0	505	428	0	472	39	4	
6	0	0	0	0	511	415	0	464	39	4	
7	0	0	0	0	504	401	0	466	39	4	
8	0	0	0	0	500	384	0	462	39	4	
9	0	0	0	0	499	368	0	462	39	4	
10	0	0	0	0	502	351	0	462	39	4	
11	0	0	0	0	502	337	0	468	39	4	
12	0	0	0	0	498	327	0	470	39	4	
13	0	0	0	0	500	316	0	470	39	4	
14	0	0	0	0	507	320	0	469	39	4	
15	0	0	0	0	504	327	0	467	39	4	
0	0	0	0	0	512	342	0	463	39	4	
1	0	0	0	0	501	354	0	467	39	4	
2	0	0	0	0	506	353	0	478	39	4	
3	0	0	0	0	501	357	0	502	39	4	
4	0	0	0	0	499	372	0	518	39	4	
5	0	0	0	0	516	380	0	514	39	4	
6	0	0	0	0	512	380	0	511	39	4	
7	0	0	0	0	504	371	0	500	39	4	
8	0	0	0	0	504	364	0	493	39	4	
9	0	0	0	0	494	374	0	484	39	4	
10	0	0	0	0	515	391	0	475	39	4	
11	0	0	0	0	499	401	0	480	39	4	
12	0	0	0	0	500	405	0	479	39	4	
13	0	0	0	0	504	415	0	477	39	4	
14	0	0	0	0	493	425	0	472	39	4	
15	0	0	0	0	516	433	0	469	39	4	
0	0	0	0	0	506	441	0	471	39	4	
1	0	0	0	0	501	451	0	475	39	4	
2	0	0	0	0	500	458	0	502	39	4	
3	0	0	0	0	502	465	0	517	39	4	
4	0	0	0	0	504	477	0	538	39	4	
5	0	0	0	0	499	484	0	551	39	4	
6	0	0	0	0	504	493	0	558	39	4	
7	0	0	0	0	498	505	0	568	39	4	
8	0	0	0	0	500	513	0	563	39	4	
9	0	0	0	0	506	510	0	546	39	4	
10	0	0	0	0	499	502	0	528	39	4	
11	0	0	0	0	515	494	0	518	39	4	
12	0	0	0	0	504	492	0	529	39	4	
13	0	0	0	0	499	490	0	530	39	4	
14	0	0	0	0	502	489	0	538	39	4	
15	0	0	0	0	499	492	0	545	39	4	
0	0	0	0	0	513	504	0	544	39	4	
1	0	0	0	0	497	517	0	560	39	4	
2	0	0	0	0	500	526	0	551	39	4	
3	0	0	0	0	503	519	0	556	39	4	
4	0	0	0	0	500	512	0	558	39	4	
5	0	0	0	0	510	516	0	553	39	4	
6	0	0	0	0	507	518	0	557	39	4	
7	0	0	0	0	500	518	0	543	39	4	
8	0	0	0	0	505	519	0	524	39	4	
9	0	0	0	0	510	525	0	509	39	4	
10	0	0	0	0	504	533	0	503	39	4	
11	0	0	0	0	504	540	0	519	39	4	
12	0	0	0	0	508	547	0	522	39	4	
13	0	0	0	0	509	547	0	534	39	4	
14	0	0	0	0	504	552	0	548	39	4	
15	0	0	0	0	505	560	0	551	39	4	
0	0	0	0	0	506	565	0	559	39	4	
1	0	0	0	0	504	571	0	555	39	4	
2	0	0	0	0	497	573	0	558	39	4	
3	0	0	0	0	500	576	0	564	39	4	
4	0	0	0	0	509	573	0	551	39	4	
5	0	0	0	0	496	571	0	533	39	4	
6	0	0	0	0	501	573	0	515	39	4	
7	0	0	0	0	512	574	0	497	39	4	
8	0	0	0	0	501	577	0	489	39	4	
9	0	0	0	0	511	578	0	484	39	4	
10	0	0	0	0	504	578	0	505	39	4	
11	0	0	0	0	502	575	0	519	39	4	
12	0	0	0	0	498	572	0	534	39	4	
13	0	0	0	0	505	574	0	545	39	4	
14	0	0	0	0	506	575	0	545	39	4	
15	0	0	0	0	504	573	0	559	39	4	
0	0	0	0	0	502	562	0	560	39	4	
1	0	0	0	0	503	559	0	563	39	4	
2	0	0	0	0	506	562	0	564	39	4	
3	0	0	0	0	495	560	0	549	39	4	
4	0	0	0	0	500	561	0	534	39	4	
5	0	0	0	0	510	564	0	518	39	4	
6	0	0	0	0	510	562	0	520	39	4	
7	0	0	0	0	494	559	0	523	39	4	
8	0	0	0	0	496	560	0	512	39	4	
9	0	0	0	0	499	564	0	505	39	4	
10	0	0	0	0	507	565	0	532	39	4	
11	0	0	0	0	508	568	0	526	39	4	
12	0	0	0	0	499	563	0	536	39	4	
13	0	0	0	0	500	560	0	547	39	4	
14	0	0	0	0	498	562	0	548	39	4	
15	0	0	0	0	497	554	0	555	39	4	
0	0	0	0	0	515	560	0	551	39	4	
1	0	0	0	0	505	561	0	548	39	4	
2	0	0	0	0	494	565	0	558	39	4	
3	0	0	0	0	499	570	0	556	39	4	
4	0	0	0	0	500	567	0	564	39	4	
5	0	0	0	0	513	561	0	560	39	4	
6	0	0	0	0	510	559	0	545	39	4	
7	0	0	0	0	514	559	0	534	39	4	
8	0	0	0	0	491	565	0	542	39	4	
9	0	0	0	0	510	569	0	537	39	4	
10	0	0	0	0	509	567	0	524	39	4	
11	0	0	0	0	497	561	0	512	39	4	
12	0	0	0	0	496	561	0	505	39	4	
13	0	0	0	0	499	569	0	519	39	4	
14	0	0	0	0	501	574	0	527	39	4	
15	0	0	0	0	504	570	0	530	39	4	
0	0	0	0	0	509	565	0	546	39	4	
1	0	0	0	0	503	564	0	549	39	4	
2	0	0	0	0	497	564	0	560	39	4	
3	0	0	0	0	504	559	0	552	39	4	
4	0	0	0	0	503	552	0	535	39	4	
5	0	0	0	0	510	551	0	522	39	4	
6	0	0	0	0	508	553	0	513	39	4	
7	0	0	0	0	494	559	0	529	39	4	
8	0	0	0	0	503	560	0	531	39	4	
9	0	0	0	0	497	562	0	542	39	4	
10	0	0	0	0	506	568	0	549	39	4	
11	0	0	0	0	500	569	0	542	39	4	
12	0	0	0	0	505	565	0	531	39	4	
13	0	0	0	0	500	565	0	514	39	4	
14	0	0	0	0	513	572	0	503	39	4	
15	0	0	0	0	511	573	0	511	39	4	
0	0	0	0	0	497	564	0	521	39	4	
1	0	0	0	0	505	565	0	528	39	4	
2	0	0	0	0	498	569	0	539	39	4	
3	0	0	0	0	511	570	0	548	39	4	
4	0	0	0	0	508	573	0	556	39	4	
5	0	0	0	0	502	573	0	566	39	4	
6	0	0	0	0	496	572	0	558	39	4	
7	0	0	0	0	508	569	0	569	39	4	
8	0	0	0	0	510	564	0	560	39	4	
9	0	0	0	0	500	567	0	560	39	4	
10	0	0	0	0	501	569	0	565	39	4	
11	0	0	0	0	499	568	0	560	39	4	
12	0	0	0	0	498	563	0	564	39	4	
13	0	0	0	0	506	559	0	563	39	4	
14	0	0	0	0	510	561	0	560	39	4	
15	0	0	0	0	502	565	0	566	39	4	
0	0	0	0	0	502	567	0	561	39	4	
1	0	0	0	0	502	562	0	565	39	4	
2	0	0	0	0	507	564	0	560	39	4	
3	0	0	0	0	506	569	0	558	39	4	
4	0	0	0	0	501	572	0	566	39	4	
5	0	0	0	0	498	567	0	561	39	4	
6	0	0	0	0	504	565	0	566	39	4	
7	0	0	0	0	514	560	0	559	39	4	
8	0	0	0	0	503	556	0	558	39	4	
9	0	0	0	0	498	551	0	564	39	4	
10	0	0	0	0	502	548	0	558	39	4	
11	0	0	0	0	496	554	0	539	39	4	
12	0	0	0	0	510	565	0	520	39	4	
13	0	0	0	0	504	579	0	527	39	4	
14	0	0	0	0	500	584	0	496	39	4	
15	0	0	0	0	505	586	0	491	39	4	
0	0	0	0	0	497	589	0	486	39	4	
1	0	0	0	0	500	595	0	499	39	4	
2	0	0	0	0	505	592	0	522	39	4	
3	0	0	0	0	501	589	0	530	39	4	
4	0	0	0	0	493	590	0	550	39	4	
5	0	0	0	0	502	596	0	550	39	4	
6	0	0	0	0	503	598	0	556	39	4	
7	0	0	0	0	500	593	0	555	39	4	
8	0	0	0	0	505	588	0	539	39	4	
9	0	0	0	0	514	589	0	524	39	4	
10	0	0	0	0	501	587	0	526	39	4	
11	0	0	0	0	507	587	0	530	39	4	
12	0	0	0	0	512	590	0	537	39	4	
13	0	0	0	0	500	602	0	547	39	4	
14	0	0	0	0	505	606	0	545	39	4	
15	0	0	0	0	504	602	0	552	39	4	
0	0	0	0	0	505	601	0	549	39	4	
1	0	0	0	0	508	614	0	548	39	4	
2	0	0	0	0	496	619	0	555	39	4	
3	0	0	0	0	499	622	0	551	39	4	
4	0	0	0	0	502	631	0	556	39	4	
5	0	0	0	0	506	633	0	557	39	4	
6	0	0	0	0	500	637	0	553	39	4	
7	0	0	0	0	499	634	0	558	39	4	
8	0	0	0	0	505	620	0	546	39	4	
9	0	0	0	0	501	603	0	544	39	4	
10	0	0	0	0	513	586	0	539	39	4	
11	0	0	0	0	508	583	0	536	39	4	
12	0	0	0	0	500	577	0	543	39	4	
13	0	0	0	0	510	574	0	541	39	4	
14	0	0	0	0	493	573	0	545	39	4	
15	0	0	0	0	508	570	0	540	39	4	
0	0	0	0	0	498	572	0	535	39	4	
1	0	0	0	0	497	575	0	536	39	4	
2	0	0	0	0	510	579	0	531	39	4	
3	0	0	0	0	503	579	0	535	39	4	
4	0	0	0	0	508	581	0	530	39	4	
5	0	0	0	0	510	587	0	547	39	4	
6	0	0	0	0	491	591	0	536	39	4	
7	0	0	0	0	503	588	0	533	39	4	
8	0	0	0	0	504	583	0	536	39	4	
9	0	0	0	0	509	581	0	534	39	4	
10	0	0	0	0	503	577	0	530	39	4	
11	0	0	0	0	496	578	0	535	39	4	
12	0	0	0	0	513	579	0	531	39	4	
13	0	0	0	0	495	577	0	532	39	4	
14	0	0	0	0	503	575	0	528	39	4	
15	0	0	0	0	507	572	0	523	39	4	
0	0	0	0	0	508	566	0	531	39	4	
1	0	0	0	0	505	567	0	526	39	4	
2	0	0	0	0	502	569	0	528	39	4	
3	0	0	0	0	513	562	0	528	39	4	
4	0	0	0	0	508	556	0	528	39	4	
5	0	0	0	0	497	550	0	534	39	4	
6	0	0	0	0	503	538	0	531	39	4	
7	0	0	0	0	502	529	0	533	39	4	
8	0	0	0	0	500	528	0	525	39	4	
9	0	0	0	0	494	531	0	520	39	4	
10	0	0	0	0	500	534	0	525	39	4	
11	0	0	0	0	502	535	0	518	39	4	
12	0	0	0	0	504	534	0	514	39	4	
13	0	0	0	0	511	529	0	513	39	4	
14	0	0	0	0	508	527	0	504	39	4	
15	0	0	0	0	508	523	0	483	39	4	
0	0	0	0	0	505	517	0	481	39	4	
1	0	0	0	0	507	515	0	488	39	4	
2	0	0	0	0	510	523	0	494	39	4	
3	0	0	0	0	498	527	0	495	39	4	
4	0	0	0	0	498	529	0	481	39	4	
5	0	0	0	0	496	523	0	473	39	4	
6	0	0	0	0	505	515	0	466	39	4	
7	0	0	0	0	518	512	0	460	39	4	
8	0	0	0	0	494	509	0	473	39	4	
9	0	0	0	0	507	507	0	486	39	4	
10	0	0	0	0	500	501	0	488	39	4	
11	0	0	0	0	499	505	0	483	39	4	
12	0	0	0	0	508	510	0	471	39	4	
13	0	0	0	0	508	513	0	478	39	4	
14	0	0	0	0	508	511	0	465	39	4	
15	0	0	0	0	499	504	0	465	39	4	
0	0	0	0	0	495	495	0	464	39	4	
1	0	0	0	0	504	493	0	479	39	4	
2	0	0	0	0	508	496	0	498	39	4	
3	0	0	0	0	506	492	0	506	39	4	
4	0	0	0	0	503	479	0	527	39	4	
5	0	0	0	0	495	465	0	533	39	4	
6	0	0	0	0	499	456	0	540	39	4	
7	0	0	0	0	504	462	0	539	39	4	
8	0	0	0	0	504	466	0	529	39	4	
9	0	0	0	0	499	467	0	523	39	4	
10	0	0	0	0	500	467	0	508	39	4	
11	0	0	0	0	509	460	0	492	39	4	
12	0	0	0	0	504	457	0	488	39	4	
13	0	0	0	0	505	447	0	476	39	4	
14	0	0	0	0	507	437	0	475	39	4	
15	0	0	0	0	505	435	0	471	39	4	
0	0	0	0	0	509	433	0	465	39	4	
1	0	0	0	0	505	427	0	467	39	4	
2	0	0	0	0	502	424	0	464	39	4	
3	0	0	0	0	505	427	0	470	39	4	
4	0	0	0	0	501	430	0	488	39	4	
5	0	0	0	0	511	431	0	504	39	4	
6	0	0	0	0	507	435	0	519	39	4	
7	0	0	0	0	497	449	0	532	39	4	
8	0	0	0	0	507	462	0	530	39	4	
9	0	0	0	0	502	460	0	537	39	4	
10	0	0	0	0	510	444	0	536	39	4	
11	0	0	0	0	499	422	0	535	39	4	
12	0	0	0	0	501	401	0	541	39	4	
13	0	0	0	0	504	391	0	536	39	4	
14	0	0	0	0	508	390	0	536	39	4	
15	0	0	0	0	508	403	0	527	39	4	
0	0	0	0	0	504	426	0	524	39	4	
1	0	0	0	0	496	447	0	523	39	4	
2	0	0	0	0	500	454	0	519	39	4	
3	0	0	0	0	504	447	0	524	39	4	
4	0	0	0	0	509	443	0	524	39	4	
5	0	0	0	0	501	450	0	526	39	4	
6	0	0	0	0	501	448	0	531	39	4	
7	0	0	0	0	504	442	0	524	39	4	
8	0	0	0	0	502	436	0	527	39	4	
9	0	0	0	0	506	437	0	527	39	4	
10	0	0	0	0	508	440	0	527	39	4	
11	0	0	0	0	500	437	0	534	39	4	
12	0	0	0	0	502	430	0	527	39	4	
13	0	0	0	0	508	423	0	506	39	4	
14	0	0	0	0	504	420	0	505	39	4	
15	0	0	0	0	506	423	0	510	39	4	
0	0	0	0	0	508	424	0	506	39	4	
1	0	0	0	0	495	429	0	516	39	4	
2	0	0	0	0	501	439	0	510	39	4	
3	0	0	0	0	501	438	0	512	39	4	
4	0	0	0	0	498	428	0	514	39	4	
5	0	0	0	0	506	420	0	502	39	4	
6	0	0	0	0	503	426	0	488	39	4	
7	0	0	0	0	509	431	0	471	39	4	
8	0	0	0	0	510	432	0	451	39	4	
9	0	0	0	0	497	431	0	446	39	4	
10	0	0	0	0	503	432	0	435	39	4	
11	0	0	0	0	499	436	0	435	39	4	
12	0	0	0	0	501	435	0	435	39	4	
13	0	0	0	0	510	428	0	435	39	4	
14	0	0	0	0	497	417	0	439	39	4	
15	0	0	0	0	494	412	0	433	39	4	
0	0	0	0	0	505	413	0	432	39	4	
1	0	0	0	0	511	419	0	431	39	4	
2	0	0	0	0	500	427	0	430	39	4	
3	0	0	0	0	504	432	0	427	39	4	
4	0	0	0	0	498	434	0	431	39	4	
5	0	0	0	0	499	440	0	433	39	4	
6	0	0	0	0	496	449	0	438	39	4	
7	0	0	0	0	508	460	0	435	39	4	
8	0	0	0	0	496	467	0	437	39	4	
9	0	0	0	0	501	464	0	432	39	4	
10	0	0	0	0	504	460	0	435	39	4	
11	0	0	0	0	500	457	0	450	39	4	
12	0	0	0	0	507	454	0	437	39	4	
13	0	0	0	0	502	450	0	443	39	4	
14	0	0	0	0	510	447	0	451	39	4	
15	0	0	0	0	499	445	0	472	39	4	
0	0	0	0	0	504	449	0	475	39	4	
1	0	0	0	0	503	452	0	489	39	4	
2	0	0	0	0	501	449	0	503	39	4	
3	0	0	0	0	502	448	0	499	39	4	
4	0	0	0	0	500	455	0	492	39	4	
5	0	0	0	0	505	460	0	480	39	4	
6	0	0	0	0	504	467	0	469	39	4	
7	0	0	0	0	495	473	0	463	39	4	
8	0	0	0	0	499	471	0	451	39	4	
9	0	0	0	0	499	466	0	447	39	4	
10	0	0	0	0	502	469	0	444	39	4	
11	0	0	0	0	511	474	0	454	39	4	
12	0	0	0	0	509	478	0	450	39	4	
13	0	0	0	0	508	476	0	448	39	4	
14	0	0	0	0	503	467	0	452	39	4	
15	0	0	0	0	501	452	0	455	39	4	
0	0	0	0	0	512	451	0	451	39	4	
1	0	0	0	0	504	462	0	450	39	4	
2	0	0	0	0	500	465	0	446	39	4	
3	0	0	0	0	507	458	0	453	39	4	
4	0	0	0	0	495	452	0	454	39	4	
5	0	0	0	0	504	451	0	455	39	4	
6	0	0	0	0	501	464	0	462	39	4	
7	0	0	0	0	505	483	0	456	39	4	
8	0	0	0	0	500	485	0	452	39	4	
9	0	0	0	0	508	479	0	449	39	4	
10	0	0	0	0	502	472	0	471	39	4	
11	0	0	0	0	509	471	0	491	39	4	
12	0	0	0	0	507	470	0	501	39	4	
13	0	0	0	0	497	473	0	523	39	4	
14	0	0	0	0	500	475	0	525	39	4	
15	0	0	0	0	508	476	0	515	39	4	
0	0	0	0	0	498	479	0	507	39	4	
1	0	0	0	0	497	478	0	492	39	4	
2	0	0	0	0	504	471	0	484	39	4	
3	0	0	0	0	507	465	0	485	39	4	
4	0	0	0	0	507	469	0	468	39	4	
5	0	0	0	0	505	476	0	471	39	4	
6	0	0	0	0	501	467	0	469	39	4	
7	0	0	0	0	500	469	0	468	39	4	
8	0	0	0	0	502	473	0	463	39	4	
9	0	0	0	0	509	480	0	462	39	4	
10	0	0	0	0	504	487	0	469	39	4	
11	0	0	0	0	502	486	0	467	39	4	
12	0	0	0	0	508	483	0	469	39	4	
13	0	0	0	0	495	483	0	469	39	4	
14	0	0	0	0	512	484	0	469	39	4	
15	0	0	0	0	504	484	0	472	38	4	
0	0	0	0	0	499	479	0	468	39	4	
1	0	0	0	0	500	472	0	471	39	4	
2	0	0	0	0	496	471	0	470	39	4	
3	0	0	0	0	508	470	0	468	39	4	
4	0	0	0	0	502	469	0	476	38	4	
5	0	0	0	0	496	470	0	478	39	4	
6	0	0	0	0	498	472	0	479	39	4	
7	0	0	0	0	505	477	0	478	39	4	
8	0	0	0	0	509	483	0	474	39	4	
9	0	0	0	0	496	489	0	475	39	4	
10	0	0	0	0	511	494	0	483	39	4	
11	0	0	0	0	501	499	0	509	39	4	
12	0	0	0	0	503	505	0	531	39	4	
13	0	0	0	0	512	504	0	511	39	4	
14	0	0	0	0	502	499	0	501	39	4	
15	0	0	0	0	496	496	0	484	39	4	
0	0	0	0	0	498	488	0	476	39	4	
1	0	0	0	0	508	475	0	472	39	4	
2	0	0	0	0	508	467	0	464	39	4	
3	0	0	0	0	509	475	0	468	39	4	
4	0	0	0	0	503	471	0	468	39	4	
5	0	0	0	0	511	470	0	468	39	4	
6	0	0	0	0	505	470	0	464	39	4	
7	0	0	0	0	508	476	0	478	39	4	
8	0	0	0	0	495	485	0	463	39	4	
9	0	0	0	0	505	489	0	467	39	4	
10	0	0	0	0	503	491	0	494	39	4	
11	0	0	0	0	501	493	0	508	39	4	
12	0	0	0	0	496	497	0	527	39	4	
13	0	0	0	0	500	503	0	543	39	4	
14	0	0	0	0	506	505	0	547	39	4	
15	0	0	0	0	504	503	0	561	39	4	
0	0	0	0	0	506	502	0	557	39	4	
1	0	0	0	0	502	501	0	560	39	4	
2	0	0	0	0	496	496	0	563	39	4	
3	0	0	0	0	504	487	0	559	39	4	
4	0	0	0	0	501	488	0	567	39	4	
5	0	0	0	0	502	488	0	560	39	4	
6	0	0	0	0	503	486	0	560	39	4	
7	0	0	0	0	507	483	0	558	39	4	
8	0	0	0	0	507	490	0	550	39	4	
9	0	0	0	0	504	504	0	559	39	4	
10	0	0	0	0	506	511	0	556	39	4	
11	0	0	0	0	505	501	0	559	39	4	
12	0	0	0	0	499	488	0	557	39	4	
13	0	0	0	0	509	478	0	557	39	4	
14	0	0	0	0	491	470	0	555	39	4	
15	0	0	0	0	505	464	0	543	39	4	
0	0	0	0	0	495	459	0	544	39	4	
1	0	0	0	0	505	457	0	545	39	4	
2	0	0	0	0	511	452	0	540	39	4	
3	0	0	0	0	500	451	0	550	39	4	
4	0	0	0	0	504	452	0	543	39	4	
5	0	0	0	0	503	459	0	544	39	4	
6	0	0	0	0	507	471	0	548	39	4	
7	0	0	0	0	503	498	0	543	39	4	
8	0	0	0	0	498	518	0	546	39	4	
9	0	0	0	0	514	521	0	533	39	4	
10	0	0	0	0	495	522	0	531	39	4	
11	0	0	0	0	501	519	0	539	39	4	
12	0	0	0	0	508	515	0	525	39	4	
13	0	0	0	0	503	514	0	508	39	4	
14	0	0	0	0	505	505	0	488	39	4	
15	0	0	0	0	504	493	0	492	39	4	
0	0	0	0	0	498	491	0	500	39	4	
1	0	0	0	0	502	488	0	503	39	4	
2	0	0	0	0	500	481	0	519	39	4	
3	0	0	0	0	503	478	0	519	39	4	
4	0	0	0	0	505	480	0	524	39	4	
5	0	0	0	0	505	489	0	529	39	4	
6	0	0	0	0	503	490	0	525	39	4	
7	0	0	0	0	500	487	0	537	39	4	
8	0	0	0	0	503	491	0	526	39	4	
9	0	0	0	0	499	501	0	527	39	4	
10	0	0	0	0	500	512	0	526	39	4	
11	0	0	0	0	506	525	0	519	39	4	
12	0	0	0	0	501	539	0	528	39	4	
13	0	0	0	0	513	543	0	524	39	4	
14	0	0	0	0	507	531	0	527	39	4	
15	0	0	0	0	502	507	0	530	39	4	
0	0	0	0	0	508	488	0	526	39	4	
1	0	0	0	0	502	487	0	533	39	4	
2	0	0	0	0	507	488	0	536	39	4	
3	0	0	0	0	499	484	0	528	39	4	
4	0	0	0	0	498	487	0	527	39	4	
5	0	0	0	0	507	490	0	519	39	4	
6	0	0	0	0	503	491	0	528	39	4	
7	0	0	0	0	504	493	0	521	39	4	
8	0	0	0	0	500	495	0	523	39	4	
9	0	0	0	0	496	494	0	523	39	4	
10	0	0	0	0	509	486	0	517	39	4	
11	0	0	0	0	500	484	0	527	39	4	
12	0	0	0	0	498	491	0	519	39	4	
13	0	0	0	0	503	494	0	503	39	4	
14	0	0	0	0	505	501	0	500	39	4	
15	0	0	0	0	499	508	0	512	39	4	
0	0	0	0	0	508	513	0	512	39	4	
1	0	0	0	0	508	513	0	518	39	4	
2	0	0	0	0	513	510	0	518	39	4	
3	0	0	0	0	504	509	0	510	39	4	
4	0	0	0	0	493	502	0	491	39	4	
5	0	0	0	0	502	498	0	481	39	4	
6	0	0	0	0	491	502	0	471	39	4	
7	0	0	0	0	508	505	0	465	39	4	
8	0	0	0	0	502	506	0	471	39	4	
9	0	0	0	0	499	505	0	500	39	4	
10	0	0	0	0	503	503	0	486	39	4	
11	0	0	0	0	511	507	0	479	39	4	
12	0	0	0	0	502	520	0	484	39	4	
13	0	0	0	0	499	536	0	485	39	4	
14	0	0	0	0	502	537	0	471	39	4	
15	0	0	0	0	501	530	0	468	39	4	
0	0	0	0	0	507	518	0	463	39	4	
1	0	0	0	0	506	506	0	459	39	4	
2	0	0	0	0	502	499	0	473	39	4	
3	0	0	0	0	494	493	0	493	39	4	
4	0	0	0	0	509	492	0	499	39	4	
5	0	0	0	0	496	493	0	493	39	4	
6	0	0	0	0	497	491	0	499	39	4	
7	0	0	0	0	505	492	0	507	39	4	
8	0	0	0	0	502	484	0	508	39	4	
9	0	0	0	0	498	469	0	519	39	4	
10	0	0	0	0	503	462	0	513	39	4	
11	0	0	0	0	509	465	0	501	39	4	
12	0	0	0	0	502	477	0	495	39	4	
13	0	0	0	0	497	488	0	482	39	4	
14	0	0	0	0	503	499	0	477	39	4	
15	0	0	0	0	504	495	0	471	39	4	
0	0	0	0	0	509	489	0	466	39	4	
1	0	0	0	0	500	496	0	473	39	4	
2	0	0	0	0	497	499	0	495	39	4	
3	0	0	0	0	496	499	0	503	39	4	
4	0	0	0	0	495	502	0	509	39	4	
5	0	0	0	0	512	500	0	481	39	4	
6	0	0	0	0	507	499	0	478	39	4	
7	0	0	0	0	507	494	0	476	39	4	
8	0	0	0	0	497	497	0	492	39	4	
9	0	0	0	0	504	502	0	496	39	4	
10	0	0	0	0	505	501	0	508	39	4	
11	0	0	0	0	501	502	0	520	39	4	
12	0	0	0	0	512	501	0	522	39	4	
13	0	0	0	0	492	504	0	539	39	4	
14	0	0	0	0	502	507	0	534	39	4	
15	0	0	0	0	504	508	0	538	39	4	
0	0	0	0	0	502	506	0	539	39	4	
1	0	0	0	0	506	498	0	525	39	4	
2	0	0	0	0	503	496	0	509	39	4	
3	0	0	0	0	515	494	0	491	39	4	
4	0	0	0	0	503	497	0	478	39	4	
5	0	0	0	0	499	500	0	476	39	4	
6	0	0	0	0	505	491	0	467	39	4	
7	0	0	0	0	507	493	0	467	39	4	
8	0	0	0	0	507	502	0	465	39	4	
9	0	0	0	0	504	507	0	478	39	4	
10	0	0	0	0	498	513	0	500	39	4	
11	0	0	0	0	507	516	0	498	39	4	
12	0	0	0	0	497	517	0	495	39	4	
13	0	0	0	0	504	516	0	481	39	4	
14	0	0	0	0	502	517	0	483	39	4	
15	0	0	0	0	502	513	0	482	39	4	
0	0	0	0	0	500	507	0	489	39	4	
1	0	0	0	0	505	507	0	490	39	4	
2	0	0	0	0	498	510	0	478	39	4	
3	0	0	0	0	505	516	0	467	39	4	
4	0	0	0	0	497	522	0	466	39	4	
5	0	0	0	0	500	511	0	457	39	4	
6	0	0	0	0	505	499	0	460	39	4	
7	0	0	0	0	502	486	0	459	39	4	
8	0	0	0	0	492	482	0	476	39	4	
9	0	0	0	0	503	493	0	493	39	4	
10	0	0	0	0	506	498	0	489	39	4	
11	0	0	0	0	502	503	0	493	39	4	
12	0	0	0	0	505	509	0	504	39	4	
13	0	0	0	0	509	515	0	514	39	4	
14	0	0	0	0	506	523	0	521	39	4	
15	0	0	0	0	497	537	0	530	39	4	
0	0	0	0	0	494	545	0	526	39	4	
1	0	0	0	0	496	547	0	532	39	4	
2	0	0	0	0	510	550	0	530	39	4	
3	0	0	0	0	497	554	0	528	39	4	
4	0	0	0	0	507	551	0	516	39	4	
5	0	0	0	0	498	542	0	505	39	4	
6	0	0	0	0	501	540	0	488	39	4	
7	0	0	0	0	508	533	0	475	39	4	
8	0	0	0	0	506	520	0	486	39	4	
9	0	0	0	0	499	515	0	501	39	4	
10	0	0	0	0	504	518	0	504	39	4	
11	0	0	0	0	505	520	0	492	39	4	
12	0	0	0	0	505	519	0	478	39	4	
13	0	0	0	0	503	524	0	476	39	4	
14	0	0	0	0	503	525	0	469	39	4	
15	0	0	0	0	501	523	0	470	39	4	
0	0	0	0	0	496	523	0	465	39	4	
1	0	0	0	0	511	523	0	463	39	4	
2	0	0	0	0	500	520	0	476	39	4	
3	0	0	0	0	495	515	0	504	39	4	
4	0	0	0	0	513	514	0	504	39	4	
5	0	0	0	0	508	515	0	498	39	4	
6	0	0	0	0	498	516	0	505	39	4	
7	0	0	0	0	504	520	0	509	39	4	
8	0	0	0	0	499	519	0	497	39	4	
9	0	0	0	0	499	518	0	484	39	4	
10	0	0	0	0	501	517	0	472	39	4	
11	0	0	0	0	504	516	0	484	39	4	
12	0	0	0	0	504	514	0	496	39	4	
13	0	0	0	0	500	510	0	494	39	4	
14	0	0	0	0	500	505	0	495	39	4	
15	0	0	0	0	504	504	0	508	39	4	
0	0	0	0	0	509	504	0	517	39	4	
1	0	0	0	0	504	506	0	513	39	4	
2	0	0	0	0	503	512	0	498	39	4	
3	0	0	0	0	510	519	0	488	39	4	
4	0	0	0	0	509	519	0	478	39	4	
5	0	0	0	0	497	507	0	467	39	4	
6	0	0	0	0	497	491	0	469	39	4	
7	0	0	0	0	506	479	0	465	39	4	
8	0	0	0	0	497	475	0	472	39	4	
9	0	0	0	0	511	474	0	486	39	4	
10	0	0	0	0	511	480	0	500	39	4	
11	0	0	0	0	499	485	0	511	39	4	
12	0	0	0	0	495	483	0	526	39	4	
13	0	0	0	0	500	480	0	524	39	4	
14	0	0	0	0	510	481	0	510	39	4	
15	0	0	0	0	503	480	0	510	39	4	
0	0	0	0	0	508	478	0	513	39	4	
1	0	0	0	0	498	487	0	502	39	4	
2	0	0	0	0	498	495	0	496	39	4	
3	0	0	0	0	503	498	0	484	39	4	
4	0	0	0	0	507	499	0	476	39	4	
5	0	0	0	0	499	500	0	476	39	4	
6	0	0	0	0	507	497	0	472	39	4	
7	0	0	0	0	499	493	0	471	39	4	
8	0	0	0	0	497	487	0	466	39	4	
9	0	0	0	0	509	484	0	461	39	4	
10	0	0	0	0	509	488	0	465	39	4	
11	0	0	0	0	504	486	0	463	39	4	
12	0	0	0	0	503	485	0	465	39	4	
13	0	0	0	0	503	485	0	466	39	4	
14	0	0	0	0	510	483	0	462	39	4	
15	0	0	0	0	500	481	0	465	39	4	
0	0	0	0	0	501	479	0	461	39	4	
1	0	0	0	0	499	483	0	463	39	4	
2	0	0	0	0	499	491	0	463	39	4	
3	0	0	0	0	504	498	0	462	39	4	
4	0	0	0	0	508	499	0	473	39	4	
5	0	0	0	0	502	500	0	467	39	4	
6	0	0	0	0	503	501	0	470	39	4	
7	0	0	0	0	502	508	0	472	39	4	
8	0	0	0	0	496	516	0	489	39	4	
9	0	0	0	0	497	516	0	506	39	4	
10	0	0	0	0	504	505	0	510	39	4	
11	0	0	0	0	507	498	0	509	39	4	
12	0	0	0	0	501	494	0	498	39	4	
13	0	0	0	0	504	487	0	491	39	4	
14	0	0	0	0	499	484	0	502	39	4	
15	0	0	0	0	497	498	0	515	39	4	
0	0	0	0	0	503	510	0	520	39	4	
1	0	0	0	0	502	517	0	531	39	4	
2	0	0	0	0	508	518	0	537	39	4	
3	0	0	0	0	506	522	0	543	39	4	
4	0	0	0	0	496	526	0	553	39	4	
5	0	0	0	0	505	523	0	548	39	4	
6	0	0	0	0	507	519	0	557	39	4	
7	0	0	0	0	513	519	0	555	39	4	
8	0	0	0	0	507	520	0	540	39	4	
9	0	0	0	0	504	518	0	522	39	4	
10	0	0	0	0	501	514	0	512	39	4	
11	0	0	0	0	497	509	0	524	39	4	
12	0	0	0	0	509	511	0	531	39	4	
13	0	0	0	0	510	518	0	537	39	4	
14	0	0	0	0	499	528	0	550	39	4	
15	0	0	0	0	507	534	0	542	39	4	
0	0	0	0	0	500	529	0	524	39	4	
1	0	0	0	0	496	524	0	526	39	4	
2	0	0	0	0	506	515	0	539	39	4	
3	0	0	0	0	504	504	0	542	39	4	
4	0	0	0	0	504	503	0	556	39	4	
5	0	0	0	0	504	502	0	552	39	4	
6	0	0	0	0	504	502	0	559	39	4	
7	0	0	0	0	497	507	0	549	39	4	
8	0	0	0	0	510	510	0	540	39	4	
9	0	0	0	0	494	509	0	548	39	4	
10	0	0	0	0	502	510	0	542	39	4	
11	0	0	0	0	505	511	0	545	39	4	
12	0	0	0	0	497	510	0	551	39	4	
13	0	0	0	0	506	510	0	547	39	4	
14	0	0	0	0	500	512	0	558	39	4	
15	0	0	0	0	507	513	0	553	39	4	
0	0	0	0	0	506	517	0	553	39	4	
1	0	0	0	0	506	529	0	553	39	4	
2	0	0	0	0	506	539	0	544	39	4	
3	0	0	0	0	497	550	0	552	39	4	
4	0	0	0	0	502	559	0	543	39	4	
5	0	0	0	0	503	562	0	535	39	4	
6	0	0	0	0	508	569	0	510	39	4	
7	0	0	0	0	502	574	0	491	39	4	
8	0	0	0	0	500	573	0	479	39	4	
9	0	0	0	0	504	572	0	469	39	4	
10	0	0	0	0	505	583	0	456	39	4	
11	0	0	0	0	507	602	0	462	39	4	
12	0	0	0	0	501	602	0	462	39	4	
13	0	0	0	0	503	598	0	463	39	4	
14	0	0	0	0	496	598	0	472	39	4	
15	0	0	0	0	509	601	0	459	39	4	
0	0	0	0	0	508	600	0	460	39	4	
1	0	0	0	0	493	600	0	456	39	4	
2	0	0	0	0	495	604	0	462	39	4	
3	0	0	0	0	501	602	0	464	39	4	
4	0	0	0	0	508	595	0	463	39	4	
5	0	0	0	0	497	581	0	468	39	4	
6	0	0	0	0	502	566	0	469	39	4	
7	0	0	0	0	501	553	0	471	39	4	
8	0	0	0	0	509	538	0	467	39	4	
9	0	0	0	0	512	521	0	462	39	4	
10	0	0	0	0	501	508	0	465	39	4	
11	0	0	0	0	502	499	0	463	39	4	
12	0	0	0	0	502	488	0	465	39	4	
13	0	0	0	0	499	474	0	466	39	4	
14	0	0	0	0	508	461	0	464	39	4	
15	0	0	0	0	505	456	0	471	39	4	
0	0	0	0	0	504	442	0	467	39	4	
1	0	0	0	0	499	431	0	467	39	4	
2	0	0	0	0	506	425	0	466	39	4	
3	0	0	0	0	504	421	0	465	39	4	
4	0	0	0	0	506	406	0	473	39	4	
5	0	0	0	0	500	385	0	482	39	4	
6	0	0	0	0	504	373	0	506	39	4	
7	0	0	0	0	508	363	0	511	39	4	
8	0	0	0	0	511	357	0	504	39	4	
9	0	0	0	0	504	359	0	495	39	4	
10	0	0	0	0	505	361	0	483	39	4	
11	0	0	0	0	499	360	0	481	39	4	
12	0	0	0	0	497	357	0	476	39	4	
13	0	0	0	0	507	357	0	472	39	4	
14	0	0	0	0	503	360	0	473	39	4	
15	0	0	0	0	498	365	0	471	39	4	
0	0	0	0	0	499	368	0	470	39	4	
1	0	0	0	0	501	371	0	467	39	4	
2	0	0	0	0	512	375	0	463	39	4	
3	0	0	0	0	508	375	0	467	39	4	
4	0	0	0	0	502	377	0	469	39	4	
5	0	0	0	0	506	384	0	473	39	4	
6	0	0	0	0	492	397	0	474	39	4	
7	0	0	0	0	507	408	0	472	39	4	
8	0	0	0	0	503	409	0	472	39	4	
9	0	0	0	0	508	406	0	480	39	4	
10	0	0	0	0	506	408	0	470	39	4	
11	0	0	0	0	499	408	0	472	39	4	
12	0	0	0	0	506	412	0	471	39	4	
13	0	0	0	0	501	424	0	478	39	4	
14	0	0	0	0	506	439	0	478	39	4	
15	0	0	0	0	502	451	0	480	39	4	
0	0	0	0	0	501	454	0	476	39	4	
1	0	0	0	0	512	453	0	472	39	4	
2	0	0	0	0	505	460	0	493	39	4	
3	0	0	0	0	499	464	0	516	39	4	
4	0	0	0	0	497	468	0	527	39	4	
5	0	0	0	0	502	486	0	519	39	4	
6	0	0	0	0	505	508	0	527	39	4	
7	0	0	0	0	499	522	0	504	39	4	
8	0	0	0	0	498	527	0	490	39	4	
9	0	0	0	0	499	524	0	484	39	4	
10	0	0	0	0	496	515	0	481	39	4	
11	0	0	0	0	514	509	0	475	39	4	
12	0	0	0	0	501	507	0	482	39	4	
13	0	0	0	0	504	506	0	482	39	4	
14	0	0	0	0	499	511	0	485	39	4	
15	0	0	0	0	499	515	0	483	39	4	
0	0	0	0	0	515	514	0	483	39	4	
1	0	0	0	0	504	517	0	484	39	4	
2	0	0	0	0	505	524	0	483	39	4	
3	0	0	0	0	502	532	0	489	39	4	
4	0	0	0	0	498	533	0	512	39	4	
5	0	0	0	0	508	533	0	529	39	4	
6	0	0	0	0	504	543	0	543	39	4	
7	0	0	0	0	501	551	0	557	39	4	
8	0	0	0	0	503	565	0	560	39	4	
9	0	0	0	0	500	563	0	570	39	4	
10	0	0	0	0	506	563	0	567	39	4	
11	0	0	0	0	505	568	0	565	39	4	
12	0	0	0	0	494	571	0	572	39	4	
13	0	0	0	0	511	566	0	568	39	4	
14	0	0	0	0	498	564	0	570	39	4	
15	0	0	0	0	497	565	0	582	39	4	
0	0	0	0	0	505	565	0	560	39	4	
1	0	0	0	0	502	562	0	564	39	4	
2	0	0	0	0	501	556	0	556	39	4	
3	0	0	0	0	500	549	0	562	39	4	
4	0	0	0	0	508	546	0	560	39	4	
5	0	0	0	0	506	549	0	558	39	4	
6	0	0	0	0	502	549	0	566	39	4	
7	0	0	0	0	500	548	0	562	39	4	
8	0	0	0	0	499	550	0	568	39	4	
9	0	0	0	0	511	547	0	567	39	4	
10	0	0	0	0	507	546	0	565	39	4	
11	0	0	0	0	502	544	0	572	39	4	
12	0	0	0	0	498	547	0	563	39	4	
13	0	0	0	0	504	551	0	568	39	4	
14	0	0	0	0	501	556	0	569	39	4	
15	0	0	0	0	501	562	0	551	39	4	
0	0	0	0	0	502	555	0	529	39	4	
1	0	0	0	0	501	546	0	513	39	4	
2	0	0	0	0	499	540	0	523	39	4	
3	0	0	0	0	513	536	0	535	39	4	
4	0	0	0	0	508	536	0	546	39	4	
5	0	0	0	0	497	545	0	561	39	4	
6	0	0	0	0	496	556	0	571	39	4	
7	0	0	0	0	507	560	0	565	39	4	
8	0	0	0	0	508	563	0	566	39	4	
9	0	0	0	0	506	567	0	563	39	4	
10	0	0	0	0	498	574	0	573	39	4	
11	0	0	0	0	504	571	0	570	39	4	
12	0	0	0	0	503	567	0	576	39	4	
13	0	0	0	0	509	579	0	571	39	4	
14	0	0	0	0	510	594	0	570	39	4	
15	0	0	0	0	497	593	0	576	39	4	
0	0	0	0	0	502	579	0	569	39	4	
1	0	0	0	0	497	563	0	574	39	4	
2	0	0	0	0	514	551	0	573	39	4	
3	0	0	0	0	515	550	0	557	39	4	
4	0	0	0	0	499	552	0	538	39	4	
5	0	0	0	0	499	556	0	524	39	4	
6	0	0	0	0	503	559	0	509	39	4	
7	0	0	0	0	501	559	0	499	39	4	
8	0	0	0	0	502	560	0	505	39	4	
9	0	0	0	0	495	564	0	518	39	4	
10	0	0	0	0	501	566	0	521	39	4	
11	0	0	0	0	505	564	0	514	39	4	
12	0	0	0	0	507	559	0	532	39	4	
13	0	0	0	0	502	559	0	518	39	4	
14	0	0	0	0	503	555	0	507	39	4	
15	0	0	0	0	499	551	0	503	39	4	
0	0	0	0	0	496	550	0	496	39	4	
1	0	0	0	0	507	548	0	490	39	4	
2	0	0	0	0	502	547	0	504	39	4	
3	0	0	0	0	492	543	0	524	39	4	
4	0	0	0	0	505	545	0	531	39	4	
5	0	0	0	0	510	553	0	526	39	4	
6	0	0	0	0	508	554	0	534	39	4	
7	0	0	0	0	502	547	0	542	39	4	
8	0	0	0	0	508	541	0	540	39	4	
9	0	0	0	0	498	545	0	549	39	4	
10	0	0	0	0	502	560	0	542	39	4	
11	0	0	0	0	505	577	0	547	39	4	
12	0	0	0	0	504	582	0	550	39	4	
13	0	0	0	0	504	588	0	540	39	4	
14	0	0	0	0	507	595	0	532	39	4	
15	0	0	0	0	503	593	0	540	39	4	
0	0	0	0	0	504	577	0	540	39	4	
1	0	0	0	0	504	564	0	529	39	4	
2	0	0	0	0	499	554	0	516	39	4	
3	0	0	0	0	501	545	0	508	39	4	
4	0	0	0	0	502	540	0	499	39	4	
5	0	0	0	0	512	537	0	493	39	4	
6	0	0	0	0	506	537	0	496	39	4	
7	0	0	0	0	503	544	0	489	39	4	
8	0	0	0	0	499	554	0	496	39	4	
9	0	0	0	0	496	558	0	512	39	4	
10	0	0	0	0	515	563	0	526	39	4	
11	0	0	0	0	498	575	0	526	39	4	
12	0	0	0	0	509	576	0	524	39	4	
13	0	0	0	0	499	579	0	527	39	4	
14	0	0	0	0	508	590	0	519	39	4	
15	0	0	0	0	500	598	0	527	39	4	
0	0	0	0	0	506	600	0	535	39	4	
1	0	0	0	0	512	599	0	538	39	4	
2	0	0	0	0	500	596	0	552	39	4	
3	0	0	0	0	506	591	0	564	39	4	
4	0	0	0	0	508	586	0	532	39	4	
5	0	0	0	0	507	580	0	519	39	4	
6	0	0	0	0	505	573	0	502	39	4	
7	0	0	0	0	505	571	0	501	39	4	
8	0	0	0	0	498	571	0	511	39	4	
9	0	0	0	0	507	567	0	518	39	4	
10	0	0	0	0	506	571	0	517	39	4	
11	0	0	0	0	500	574	0	505	39	4	
12	0	0	0	0	493	579	0	502	39	4	
13	0	0	0	0	501	583	0	492	39	4	
14	0	0	0	0	504	580	0	486	39	4	
15	0	0	0	0	507	578	0	486	39	4	
0	0	0	0	0	505	572	0	488	39	4	
1	0	0	0	0	496	571	0	504	39	4	
2	0	0	0	0	504	570	0	520	39	4	
3	0	0	0	0	513	570	0	505	39	4	
4	0	0	0	0	509	578	0	504	39	4	
5	0	0	0	0	507	577	0	494	39	4	
6	0	0	0	0	505	580	0	493	39	4	
7	0	0	0	0	496	586	0	487	39	4	
8	0	0	0	0	507	591	0	480	39	4	
9	0	0	0	0	502	599	0	496	39	4	
10	0	0	0	0	495	601	0	515	39	4	
11	0	0	0	0	501	598	0	525	39	4	
12	0	0	0	0	503	594	0	512	39	4	
13	0	0	0	0	500	593	0	515	39	4	
14	0	0	0	0	501	596	0	511	39	4	
15	0	0	0	0	510	599	0	507	39	4	
0	0	0	0	0	500	600	0	523	39	4	
1	0	0	0	0	507	604	0	527	39	4	
2	0	0	0	0	505	614	0	515	39	4	
3	0	0	0	0	503	612	0	509	39	4	
4	0	0	0	0	499	600	0	496	39	4	
5	0	0	0	0	511	589	0	492	39	4	
6	0	0	0	0	500	584	0	485	39	4	
7	0	0	0	0	512	588	0	476	39	4	
8	0	0	0	0	501	594	0	497	39	4	
9	0	0	0	0	511	588	0	484	39	4	
10	0	0	0	0	498	583	0	506	39	4	
11	0	0	0	0	502	579	0	512	39	4	
12	0	0	0	0	504	579	0	505	39	4	
13	0	0	0	0	497	578	0	503	39	4	
14	0	0	0	0	500	576	0	491	39	4	
15	0	0	0	0	498	581	0	494	39	4	
0	0	0	0	0	512	589	0	503	39	4	
1	0	0	0	0	503	591	0	511	39	4	
2	0	0	0	0	508	590	0	512	39	4	
3	0	0	0	0	511	588	0	512	39	4	
4	0	0	0	0	499	593	0	495	39	4	
5	0	0	0	0	511	600	0	487	39	4	
6	0	0	0	0	503	598	0	477	39	4	
7	0	0	0	0	504	595	0	479	39	4	
8	0	0	0	0	503	581	0	480	39	4	
9	0	0	0	0	498	563	0	499	39	4	
10	0	0	0	0	506	551	0	506	39	4	
11	0	0	0	0	506	547	0	500	39	4	
12	0	0	0	0	495	544	0	506	39	4	
13	0	0	0	0	507	551	0	501	39	4	
14	0	0	0	0	496	564	0	499	39	4	
15	0	0	0	0	498	569	0	489	39	4	
0	0	0	0	0	501	561	0	480	39	4	
1	0	0	0	0	499	553	0	491	39	4	
2	0	0	0	0	504	546	0	512	39	4	
3	0	0	0	0	503	547	0	515	39	4	
4	0	0	0	0	501	557	0	503	39	4	
5	0	0	0	0	508	555	0	488	39	4	
6	0	0	0	0	500	550	0	484	39	4	
7	0	0	0	0	511	540	0	472	39	4	
8	0	0	0	0	492	534	0	471	39	4	
9	0	0	0	0	501	525	0	470	39	4	
10	0	0	0	0	508	517	0	485	39	4	
11	0	0	0	0	499	517	0	504	39	4	
12	0	0	0	0	511	524	0	508	39	4	
13	0	0	0	0	498	531	0	527	39	4	
14	0	0	0	0	515	536	0	527	39	4	
15	0	0	0	0	500	531	0	531	39	4	
0	0	0	0	0	502	528	0	531	39	4	
1	0	0	0	0	504	526	0	527	39	4	
2	0	0	0	0	496	524	0	537	39	4	
3	0	0	0	0	508	520	0	535	39	4	
4	0	0	0	0	507	515	0	540	39	4	
5	0	0	0	0	503	511	0	542	39	4	
6	0	0	0	0	500	500	0	536	39	4	
7	0	0	0	0	504	485	0	542	39	4	
8	0	0	0	0	507	476	0	531	39	4	
9	0	0	0	0	495	472	0	531	39	4	
10	0	0	0	0	503	467	0	537	39	4	
11	0	0	0	0	507	463	0	525	39	4	
12	0	0	0	0	502	457	0	512	39	4	
13	0	0	0	0	506	452	0	511	39	4	
14	0	0	0	0	506	451	0	498	39	4	
15	0	0	0	0	496	454	0	503	39	4	
0	0	0	0	0	495	453	0	518	39	4	
1	0	0	0	0	496	451	0	521	39	4	
2	0	0	0	0	508	452	0	527	39	4	
3	0	0	0	0	510	454	0	527	39	4	
4	0	0	0	0	508	457	0	516	39	4	
5	0	0	0	0	502	456	0	499	39	4	
6	0	0	0	0	505	455	0	491	39	4	
7	0	0	0	0	497	448	0	482	39	4	
8	0	0	0	0	502	438	0	487	39	4	
9	0	0	0	0	499	432	0	500	39	4	
10	0	0	0	0	504	435	0	496	39	4	
11	0	0	0	0	504	439	0	494	39	4	
12	0	0	0	0	504	439	0	483	39	4	
13	0	0	0	0	508	437	0	472	39	4	
14	0	0	0	0	504	435	0	473	39	4	
15	0	0	0	0	508	435	0	468	39	4	
0	0	0	0	0	503	435	0	474	39	4	
1	0	0	0	0	500	433	0	489	39	4	
2	0	0	0	0	502	432	0	504	39	4	
3	0	0	0	0	506	440	0	508	39	4	
4	0	0	0	0	502	446	0	496	39	4	
5	0	0	0	0	498	452	0	493	39	4	
6	0	0	0	0	505	455	0	486	39	4	
7	0	0	0	0	502	454	0	478	39	4	
8	0	0	0	0	502	448	0	489	39	4	
9	0	0	0	0	504	435	0	507	39	4	
10	0	0	0	0	504	424	0	511	39	4	
11	0	0	0	0	500	417	0	505	39	4	
12	0	0	0	0	506	413	0	509	39	4	
13	0	0	0	0	504	414	0	509	39	4	
14	0	0	0	0	504	413	0	495	39	4	
15	0	0	0	0	507	410	0	492	39	4	
0	0	0	0	0	500	411	0	486	39	4	
1	0	0	0	0	502	409	0	477	39	4	
2	0	0	0	0	504	412	0	492	39	4	
3	0	0	0	0	494	417	0	511	39	4	
4	0	0	0	0	502	414	0	519	39	4	
5	0	0	0	0	512	412	0	512	39	4	
6	0	0	0	0	502	419	0	500	39	4	
7	0	0	0	0	505	435	0	495	39	4	
8	0	0	0	0	501	439	0	483	39	4	
9	0	0	0	0	511	445	0	486	39	4	
10	0	0	0	0	500	445	0	503	39	4	
11	0	0	0	0	499	445	0	515	39	4	
12	0	0	0	0	504	450	0	524	39	4	
13	0	0	0	0	500	452	0	537	39	4	
14	0	0	0	0	505	453	0	536	39	4	
15	0	0	0	0	496	450	0	542	39	4	
0	0	0	0	0	506	451	0	541	39	4	
1	0	0	0	0	498	454	0	544	39	4	
2	0	0	0	0	500	455	0	513	39	4	
3	0	0	0	0	505	451	0	506	39	4	
4	0	0	0	0	506	437	0	495	39	4	
5	0	0	0	0	507	418	0	487	39	4	
6	0	0	0	0	504	418	0	488	39	4	
7	0	0	0	0	504	423	0	479	39	4	
8	0	0	0	0	500	432	0	484	39	4	
9	0	0	0	0	508	434	0	502	39	4	
10	0	0	0	0	502	440	0	516	39	4	
11	0	0	0	0	506	447	0	518	39	4	
12	0	0	0	0	507	448	0	514	39	4	
13	0	0	0	0	508	450	0	519	39	4	
14	0	0	0	0	508	449	0	508	39	4	
15	0	0	0	0	496	443	0	516	39	4	
0	0	0	0	0	500	439	0	529	39	4	
1	0	0	0	0	502	440	0	526	39	4	
2	0	0	0	0	494	439	0	519	39	4	
3	0	0	0	0	504	434	0	510	39	4	
4	0	0	0	0	508	445	0	500	39	4	
5	0	0	0	0	508	456	0	499	39	4	
6	0	0	0	0	504	456	0	489	39	4	
7	0	0	0	0	497	451	0	492	39	4	
8	0	0	0	0	508	448	0	490	39	4	
9	0	0	0	0	502	441	0	505	39	4	
10	0	0	0	0	509	435	0	527	39	4	
11	0	0	0	0	497	432	0	526	39	4	
12	0	0	0	0	499	434	0	520	39	4	
13	0	0	0	0	507	441	0	511	39	4	
14	0	0	0	0	506	452	0	500	39	4	
15	0	0	0	0	504	464	0	513	39	4	
0	0	0	0	0	495	465	0	521	39	4	
1	0	0	0	0	498	467	0	520	39	4	
2	0	0	0	0	499	471	0	508	39	4	
3	0	0	0	0	508	479	0	497	39	4	
4	0	0	0	0	496	487	0	497	39	4	
5	0	0	0	0	501	485	0	490	39	4	
6	0	0	0	0	501	476	0	491	39	4	
7	0	0	0	0	506	471	0	489	39	4	
8	0	0	0	0	505	471	0	486	39	4	
9	0	0	0	0	507	470	0	501	39	4	
10	0	0	0	0	504	464	0	524	39	4	
11	0	0	0	0	503	459	0	532	39	4	
12	0	0	0	0	510	463	0	527	39	4	
13	0	0	0	0	503	461	0	531	39	4	
14	0	0	0	0	499	461	0	527	39	4	
15	0	0	0	0	509	460	0	522	39	4	
0	0	0	0	0	494	461	0	537	39	4	
1	0	0	0	0	497	462	0	539	39	4	
2	0	0	0	0	498	470	0	528	39	4	
3	0	0	0	0	507	475	0	522	39	4	
4	0	0	0	0	506	472	0	508	39	4	
5	0	0	0	0	503	471	0	505	39	4	
6	0	0	0	0	493	468	0	495	39	4	
7	0	0	0	0	502	463	0	488	39	4	
8	0	0	0	0	507	460	0	488	39	4	
9	0	0	0	0	506	458	0	481	39	4	
10	0	0	0	0	503	458	0	482	39	4	
11	0	0	0	0	502	455	0	480	39	4	
12	0	0	0	0	505	452	0	476	39	4	
13	0	0	0	0	503	462	0	482	39	4	
14	0	0	0	0	500	470	0	480	39	4	
15	0	0	0	0	509	478	0	483	39	4	
0	0	0	0	0	503	482	0	479	39	4	
1	0	0	0	0	510	479	0	472	39	4	
2	0	0	0	0	502	478	0	479	39	4	
3	0	0	0	0	497	476	0	480	39	4	
4	0	0	0	0	499	481	0	493	39	4	
5	0	0	0	0	502	488	0	480	39	4	
6	0	0	0	0	511	490	0	481	39	4	
7	0	0	0	0	504	487	0	480	39	4	
8	0	0	0	0	502	482	0	475	39	4	
9	0	0	0	0	499	476	0	473	39	4	
10	0	0	0	0	501	473	0	473	39	4	
11	0	0	0	0	500	470	0	472	39	4	
12	0	0	0	0	502	467	0	480	39	4	
13	0	0	0	0	511	461	0	481	39	4	
14	0	0	0	0	502	455	0	491	39	4	
15	0	0	0	0	505	452	0	511	39	4	
0	0	0	0	0	507	452	0	519	39	4	
1	0	0	0	0	502	455	0	519	39	4	
2	0	0	0	0	501	457	0	508	39	4	
3	0	0	0	0	498	460	0	504	39	4	
4	0	0	0	0	498	470	0	495	39	4	
5	0	0	0	0	501	474	0	488	39	4	
6	0	0	0	0	498	486	0	488	39	4	
7	0	0	0	0	505	496	0	483	39	4	
8	0	0	0	0	501	504	0	480	39	4	
9	0	0	0	0	510	504	0	476	39	4	
10	0	0	0	0	512	500	0	475	39	4	
11	0	0	0	0	508	496	0	479	39	4	
12	0	0	0	0	504	486	0	481	39	4	
13	0	0	0	0	495	480	0	483	39	4	
14	0	0	0	0	500	473	0	484	39	4	
15	0	0	0	0	509	475	0	480	39	4	
0	0	0	0	0	501	484	0	481	39	4	
1	0	0	0	0	504	489	0	476	39	4	
2	0	0	0	0	496	500	0	480	39	4	
3	0	0	0	0	505	509	0	481	39	4	
4	0	0	0	0	514	510	0	481	39	4	
5	0	0	0	0	496	509	0	489	39	4	
6	0	0	0	0	498	504	0	487	39	4	
7	0	0	0	0	506	501	0	504	39	4	
8	0	0	0	0	505	498	0	487	39	4	
9	0	0	0	0	504	498	0	501	39	4	
10	0	0	0	0	502	499	0	525	39	4	
11	0	0	0	0	493	492	0	530	39	4	
12	0	0	0	0	500	485	0	525	39	4	
13	0	0	0	0	506	487	0	514	39	4	
14	0	0	0	0	504	485	0	504	39	4	
15	0	0	0	0	502	484	0	495	39	4	
0	0	0	0	0	500	473	0	496	39	4	
1	0	0	0	0	495	471	0	480	39	4	
2	0	0	0	0	497	478	0	476	39	4	
3	0	0	0	0	508	493	0	473	39	4	
4	0	0	0	0	504	527	0	481	39	4	
5	0	0	0	0	506	552	0	481	39	4	
6	0	0	0	0	503	564	0	486	39	4	
7	0	0	0	0	503	561	0	484	39	4	
8	0	0	0	0	511	551	0	480	39	4	
9	0	0	0	0	509	537	0	481	39	4	
10	0	0	0	0	505	522	0	478	39	4	
11	0	0	0	0	499	518	0	483	39	4	
12	0	0	0	0	499	525	0	481	39	4	
13	0	0	0	0	504	524	0	482	39	4	
14	0	0	0	0	509	513	0	487	39	4	
15	0	0	0	0	506	495	0	483	39	4	
0	0	0	0	0	500	479	0	486	39	4	
1	0	0	0	0	501	475	0	478	39	4	
2	0	0	0	0	501	473	0	496	39	4	
3	0	0	0	0	503	476	0	515	39	4	
4	0	0	0	0	507	484	0	517	39	4	
5	0	0	0	0	500	495	0	515	39	4	
6	0	0	0	0	507	504	0	505	39	4	
7	0	0	0	0	512	506	0	495	39	4	
8	0	0	0	0	494	498	0	489	39	4	
9	0	0	0	0	501	490	0	479	39	4	
10	0	0	0	0	499	485	0	480	39	4	
11	0	0	0	0	503	476	0	503	39	4	
12	0	0	0	0	504	464	0	522	39	4	
13	0	0	0	0	499	462	0	538	39	4	
14	0	0	0	0	504	461	0	555	39	4	
15	0	0	0	0	504	463	0	552	39	4	
0	0	0	0	0	505	467	0	562	39	4	
1	0	0	0	0	505	479	0	558	39	4	
2	0	0	0	0	500	493	0	556	39	4	
3	0	0	0	0	504	503	0	563	39	4	
4	0	0	0	0	504	501	0	560	39	4	
5	0	0	0	0	503	494	0	565	39	4	
6	0	0	0	0	506	489	0	560	39	4	
7	0	0	0	0	505	486	0	557	39	4	
8	0	0	0	0	503	492	0	561	39	4	
9	0	0	0	0	502	499	0	552	39	4	
10	0	0	0	0	503	500	0	556	39	4	
11	0	0	0	0	506	497	0	553	39	4	
12	0	0	0	0	502	488	0	551	39	4	
13	0	0	0	0	500	483	0	559	39	4	
14	0	0	0	0	508	480	0	556	39	4	
15	0	0	0	0	499	475	0	559	39	4	
0	0	0	0	0	504	473	0	556	39	4	
1	0	0	0	0	510	477	0	551	39	4	
2	0	0	0	0	504	483	0	560	39	4	
3	0	0	0	0	501	489	0	551	39	4	
4	0	0	0	0	504	494	0	556	39	4	
5	0	0	0	0	509	503	0	553	39	4	
6	0	0	0	0	508	508	0	551	39	4	
7	0	0	0	0	498	512	0	555	39	4	
8	0	0	0	0	498	507	0	547	39	4	
9	0	0	0	0	501	499	0	553	39	4	
10	0	0	0	0	515	496	0	553	39	4	
11	0	0	0	0	502	497	0	540	39	4	
12	0	0	0	0	499	499	0	522	39	4	
13	0	0	0	0	501	499	0	514	39	4	
14	0	0	0	0	497	495	0	522	39	4	
15	0	0	0	0	519	486	0	529	39	4	
0	0	0	0	0	512	481	0	536	39	4	
1	0	0	0	0	496	482	0	548	39	4	
2	0	0	0	0	504	485	0	549	39	4	
3	0	0	0	0	499	488	0	557	39	4	
4	0	0	0	0	510	494	0	556	39	4	
5	0	0	0	0	507	497	0	554	39	4	
6	0	0	0	0	498	489	0	562	39	4	
7	0	0	0	0	505	481	0	553	39	4	
8	0	0	0	0	499	481	0	559	39	4	
9	0	0	0	0	506	486	0	557	39	4	
10	0	0	0	0	500	498	0	542	39	4	
11	0	0	0	0	504	499	0	524	39	4	
12	0	0	0	0	499	492	0	513	39	4	
13	0	0	0	0	500	492	0	501	39	4	
14	0	0	0	0	510	494	0	491	39	4	
15	0	0	0	0	505	496	0	492	39	4	
0	0	0	0	0	503	493	0	485	39	4	
1	0	0	0	0	498	492	0	488	39	4	
2	0	0	0	0	501	493	0	488	39	4	
3	0	0	0	0	504	492	0	503	39	4	
4	0	0	0	0	508	489	0	521	39	4	
5	0	0	0	0	509	488	0	520	39	4	
6	0	0	0	0	503	485	0	520	39	4	
7	0	0	0	0	499	485	0	530	39	4	
8	0	0	0	0	511	485	0	536	39	4	
9	0	0	0	0	500	486	0	526	39	4	
10	0	0	0	0	503	486	0	511	39	4	
11	0	0	0	0	502	487	0	522	38	4	
12	0	0	0	0	504	492	0	507	39	4	
13	0	0	0	0	506	499	0	498	39	4	
14	0	0	0	0	501	507	0	495	39	4	
15	0	0	0	0	507	512	0	486	39	4	
0	0	0	0	0	496	516	0	487	39	4	
1	0	0	0	0	502	507	0	484	39	4	
2	0	0	0	0	499	500	0	503	39	4	
3	0	0	0	0	500	507	0	515	39	4	
4	0	0	0	0	497	512	0	514	39	4	
5	0	0	0	0	504	519	0	511	39	4	
6	0	0	0	0	504	524	0	503	39	4	
7	0	0	0	0	508	524	0	495	39	4	
8	0	0	0	0	500	525	0	497	39	4	
9	0	0	0	0	511	523	0	495	39	4	
10	0	0	0	0	496	524	0	513	39	4	
11	0	0	0	0	504	519	0	519	39	4	
12	0	0	0	0	511	518	0	513	39	4	
13	0	0	0	0	500	525	0	510	39	4	
14	0	0	0	0	498	527	0	501	39	4	
15	0	0	0	0	499	526	0	502	39	4	
0	0	0	0	0	504	524	0	513	39	4	
1	0	0	0	0	505	514	0	522	39	4	
2	0	0	0	0	506	503	0	518	39	4	
3	0	0	0	0	504	498	0	510	39	4	
4	0	0	0	0	502	499	0	508	39	4	
5	0	0	0	0	506	504	0	501	39	4	
6	0	0	0	0	499	506	0	496	39	4	
7	0	0	0	0	498	510	0	497	39	4	
8	0	0	0	0	504	512	0	496	39	4	
9	0	0	0	0	501	523	0	516	39	4	
10	0	0	0	0	510	532	0	520	39	4	
11	0	0	0	0	508	540	0	515	39	4	
12	0	0	0	0	502	555	0	519	39	4	
13	0	0	0	0	503	564	0	517	39	4	
14	0	0	0	0	494	571	0	514	39	4	
15	0	0	0	0	503	573	0	508	39	4	
0	0	0	0	0	510	557	0	501	39	4	
1	0	0	0	0	505	544	0	503	39	4	
2	0	0	0	0	506	522	0	503	39	4	
3	0	0	0	0	501	497	0	528	39	4	
4	0	0	0	0	507	489	0	534	39	4	
5	0	0	0	0	502	489	0	528	39	4	
6	0	0	0	0	503	493	0	524	39	4	
7	0	0	0	0	508	494	0	514	39	4	
8	0	0	0	0	504	495	0	511	39	4	
9	0	0	0	0	494	498	0	506	39	4	
10	0	0	0	0	503	501	0	517	39	4	
11	0	0	0	0	510	505	0	536	39	4	
12	0	0	0	0	503	502	0	545	39	4	
13	0	0	0	0	507	500	0	562	39	4	
14	0	0	0	0	504	502	0	563	39	4	
15	0	0	0	0	504	502	0	568	39	4	
0	0	0	0	0	499	502	0	569	39	4	
1	0	0	0	0	505	499	0	551	39	4	
2	0	0	0	0	505	499	0	535	39	4	
3	0	0	0	0	499	488	0	517	39	4	
4	0	0	0	0	507	475	0	502	39	4	
5	0	0	0	0	504	464	0	497	39	4	
6	0	0	0	0	503	467	0	488	39	4	
7	0	0	0	0	500	484	0	488	39	4	
8	0	0	0	0	502	491	0	479	39	4	
9	0	0	0	0	509	484	0	472	39	4	
10	0	0	0	0	504	480	0	476	39	4	
11	0	0	0	0	504	484	0	475	39	4	
12	0	0	0	0	502	492	0	476	39	4	
13	0	0	0	0	502	500	0	476	39	4	
14	0	0	0	0	510	509	0	472	39	4	
15	0	0	0	0	502	516	0	477	39	4	
0	0	0	0	0	497	513	0	471	39	4	
1	0	0	0	0	497	506	0	470	39	4	
2	0	0	0	0	502	504	0	474	39	4	
3	0	0	0	0	508	507	0	467	39	4	
4	0	0	0	0	502	508	0	473	39	4	
5	0	0	0	0	504	499	0	473	39	4	
6	0	0	0	0	497	497	0	474	39	4	
7	0	0	0	0	494	504	0	473	39	4	
8	0	0	0	0	507	509	0	491	39	4	
9	0	0	0	0	507	512	0	509	39	4	
10	0	0	0	0	508	508	0	509	39	4	
11	0	0	0	0	505	502	0	508	39	4	
12	0	0	0	0	499	495	0	496	39	4	
13	0	0	0	0	503	488	0	487	39	4	
14	0	0	0	0	508	486	0	486	39	4	
15	0	0	0	0	504	478	0	478	39	4	
0	0	0	0	0	508	473	0	476	39	4	
1	0	0	0	0	500	467	0	493	39	4	
2	0	0	0	0	509	468	0	509	39	4	
3	0	0	0	0	505	476	0	524	39	4	
4	0	0	0	0	503	483	0	538	39	4	
5	0	0	0	0	501	487	0	537	39	4	
6	0	0	0	0	501	489	0	548	38	4	
7	0	0	0	0	507	483	0	553	39	4	
8	0	0	0	0	501	478	0	553	39	4	
9	0	0	0	0	498	475	0	559	39	4	
10	0	0	0	0	501	472	0	554	39	4	
11	0	0	0	0	508	470	0	557	39	4	
12	0	0	0	0	512	478	0	552	39	4	
13	0	0	0	0	505	495	0	551	39	4	
14	0	0	0	0	498	508	0	555	39	4	
15	0	0	0	0	504	519	0	542	39	4	
0	0	0	0	0	499	522	0	513	39	4	
1	0	0	0	0	506	516	0	492	39	4	
2	0	0	0	0	507	515	0	496	39	4	
3	0	0	0	0	500	515	0	514	39	4	
4	0	0	0	0	499	517	0	519	39	4	
5	0	0	0	0	503	506	0	532	39	4	
6	0	0	0	0	512	500	0	535	39	4	
7	0	0	0	0	511	500	0	536	39	4	
8	0	0	0	0	498	506	0	542	39	4	
9	0	0	0	0	503	502	0	536	39	4	
10	0	0	0	0	498	500	0	543	39	4	
11	0	0	0	0	503	508	0	543	39	4	
12	0	0	0	0	504	515	0	532	39	4	
13	0	0	0	0	499	517	0	518	39	4	
14	0	0	0	0	501	521	0	507	39	4	
15	0	0	0	0	501	527	0	497	39	4	
0	0	0	0	0	501	526	0	486	39	4	
1	0	0	0	0	506	524	0	486	39	4	
2	0	0	0	0	504	519	0	480	39	4	
3	0	0	0	0	505	521	0	486	39	4	
4	0	0	0	0	505	524	0	506	39	4	
5	0	0	0	0	507	533	0	520	39	4	
6	0	0	0	0	508	538	0	519	39	4	
7	0	0	0	0	512	531	0	516	39	4	
8	0	0	0	0	497	521	0	528	39	4	
9	0	0	0	0	504	512	0	528	39	4	
10	0	0	0	0	504	500	0	518	39	4	
11	0	0	0	0	500	498	0	518	39	4	
12	0	0	0	0	499	508	0	514	39	4	
13	0	0	0	0	498	515	0	511	39	4	
14	0	0	0	0	502	518	0	500	39	4	
15	0	0	0	0	509	523	0	507	39	4	
0	0	0	0	0	502	532	0	491	39	4	
1	0	0	0	0	502	537	0	492	39	4	
2	0	0	0	0	498	542	0	514	39	4	
3	0	0	0	0	509	540	0	521	39	4	
4	0	0	0	0	510	544	0	513	39	4	
5	0	0	0	0	507	554	0	512	39	4	
6	0	0	0	0	508	550	0	501	39	4	
7	0	0	0	0	496	552	0	497	39	4	
8	0	0	0	0	505	557	0	492	39	4	
9	0	0	0	0	499	564	0	502	39	4	
10	0	0	0	0	508	573	0	522	39	4	
11	0	0	0	0	502	580	0	520	39	4	
12	0	0	0	0	504	587	0	514	39	4	
13	0	0	0	0	500	596	0	505	39	4	
14	0	0	0	0	504	595	0	496	39	4	
15	0	0	0	0	499	601	0	506	39	4	
0	0	0	0	0	496	611	0	517	39	4	
1	0	0	0	0	505	623	0	524	39	4	
2	0	0	0	0	507	630	0	506	39	4	
3	0	0	0	0	509	627	0	494	39	4	
4	0	0	0	0	501	623	0	492	39	4	
5	0	0	0	0	508	612	0	482	39	4	
6	0	0	0	0	497	603	0	481	39	4	
7	0	0	0	0	504	583	0	479	39	4	
8	0	0	0	0	502	562	0	475	39	4	
9	0	0	0	0	509	548	0	489	39	4	
10	0	0	0	0	494	534	0	516	39	4	
11	0	0	0	0	497	519	0	521	39	4	
12	0	0	0	0	504	504	0	519	39	4	
13	0	0	0	0	505	487	0	524	39	4	
14	0	0	0	0	505	479	0	519	39	4	
15	0	0	0	0	507	473	0	515	39	4	
0	0	0	0	0	498	475	0	531	39	4	
1	0	0	0	0	511	471	0	531	39	4	
2	0	0	0	0	510	462	0	520	39	4	
3	0	0	0	0	505	450	0	513	39	4	
4	0	0	0	0	499	422	0	499	39	4	
5	0	0	0	0	503	389	0	498	39	4	
6	0	0	0	0	504	364	0	490	39	4	
7	0	0	0	0	512	343	0	481	39	4	
8	0	0	0	0	509	322	0	482	39	4	
9	0	0	0	0	510	306	0	484	39	4	
10	0	0	0	0	493	306	0	507	39	4	
11	0	0	0	0	505	314	0	513	39	4	
12	0	0	0	0	513	321	0	508	39	4	
13	0	0	0	0	501	330	0	505	39	4	
14	0	0	0	0	498	344	0	493	39	4	
15	0	0	0	0	502	359	0	499	39	4	
0	0	0	0	0	501	368	0	507	39	4	
1	0	0	0	0	508	373	0	515	39	4	
2	0	0	0	0	500	383	0	514	39	4	
3	0	0	0	0	504	392	0	508	39	4	
4	0	0	0	0	498	405	0	507	39	4	
5	0	0	0	0	503	415	0	499	39	4	
6	0	0	0	0	508	427	0	493	39	4	
7	0	0	0	0	511	432	0	496	39	4	
8	0	0	0	0	496	424	0	489	39	4	
9	0	0	0	0	499	417	0	495	39	4	
10	0	0	0	0	503	405	0	515	39	4	
11	0	0	0	0	512	406	0	527	39	4	
12	0	0	0	0	505	419	0	524	39	4	
13	0	0	0	0	514	431	0	527	39	4	
14	0	0	0	0	500	441	0	527	39	4	
15	0	0	0	0	499	445	0	517	39	4	
0	0	0	0	0	506	450	0	504	39	4	
1	0	0	0	0	500	460	0	500	39	4	
2	0	0	0	0	508	473	0	498	39	4	
3	0	0	0	0	502	477	0	522	39	4	
4	0	0	0	0	504	475	0	531	39	4	
5	0	0	0	0	505	472	0	520	39	4	
6	0	0	0	0	505	476	0	513	39	4	
7	0	0	0	0	502	481	0	499	39	4	
8	0	0	0	0	497	487	0	500	39	4	
9	0	0	0	0	504	484	0	512	39	4	
10	0	0	0	0	500	481	0	521	39	4	
11	0	0	0	0	510	483	0	531	39	4	
12	0	0	0	0	498	487	0	543	39	4	
13	0	0	0	0	509	491	0	543	39	4	
14	0	0	0	0	497	504	0	549	39	4	
15	0	0	0	0	504	529	0	545	39	4	
0	0	0	0	0	507	543	0	527	39	4	
1	0	0	0	0	502	542	0	509	39	4	
2	0	0	0	0	502	539	0	499	39	4	
3	0	0	0	0	499	542	0	488	39	4	
4	0	0	0	0	512	548	0	478	39	4	
5	0	0	0	0	495	558	0	475	39	4	
6	0	0	0	0	500	563	0	472	39	4	
7	0	0	0	0	502	566	0	471	39	4	
8	0	0	0	0	503	564	0	465	39	4	
9	0	0	0	0	514	556	0	464	39	4	
10	0	0	0	0	506	550	0	468	39	4	
11	0	0	0	0	510	548	0	464	39	4	
12	0	0	0	0	499	550	0	468	39	4	
13	0	0	0	0	501	547	0	467	39	4	
14	0	0	0	0	511	546	0	468	39	4	
15	0	0	0	0	492	551	0	475	39	4	
0	0	0	0	0	501	558	0	469	39	4	
1	0	0	0	0	499	562	0	470	39	4	
2	0	0	0	0	499	571	0	468	39	4	
3	0	0	0	0	508	584	0	468	39	4	
4	0	0	0	0	506	588	0	476	39	4	
5	0	0	0	0	506	585	0	475	39	4	
6	0	0	0	0	499	581	0	475	39	4	
7	0	0	0	0	504	575	0	473	39	4	
8	0	0	0	0	508	568	0	468	39	4	
9	0	0	0	0	504	564	0	468	39	4	
10	0	0	0	0	499	560	0	465	39	4	
11	0	0	0	0	508	563	0	468	39	4	
12	0	0	0	0	503	568	0	467	39	4	
13	0	0	0	0	504	567	0	467	39	4	
14	0	0	0	0	500	566	0	473	39	4	
15	0	0	0	0	501	555	0	470	39	4	
0	0	0	0	0	502	546	0	472	39	4	
1	0	0	0	0	499	542	0	469	39	4	
2	0	0	0	0	500	545	0	489	39	4	
3	0	0	0	0	498	554	0	513	39	4	
4	0	0	0	0	502	562	0	513	39	4	
5	0	0	0	0	497	562	0	511	39	4	
6	0	0	0	0	504	558	0	502	39	4	
7	0	0	0	0	510	554	0	491	39	4	
8	0	0	0	0	499	556	0	485	39	4	
9	0	0	0	0	498	553	0	475	39	4	
10	0	0	0	0	503	555	0	474	39	4	
11	0	0	0	0	504	554	0	472	39	4	
12	0	0	0	0	508	548	0	472	39	4	
13	0	0	0	0	502	547	0	478	39	4	
14	0	0	0	0	504	551	0	478	39	4	
15	0	0	0	0	500	558	0	482	39	4	
0	0	0	0	0	508	567	0	477	39	4	
1	0	0	0	0	508	563	0	474	39	4	
2	0	0	0	0	507	559	0	483	39	4	
3	0	0	0	0	504	556	0	483	39	4	
4	0	0	0	0	501	558	0	488	39	4	
5	0	0	0	0	501	564	0	487	39	4	
6	0	0	0	0	504	564	0	487	39	4	
7	0	0	0	0	494	565	0	491	39	4	
8	0	0	0	0	502	563	0	484	39	4	
9	0	0	0	0	506	562	0	483	39	4	
10	0	0	0	0	497	560	0	481	39	4	
11	0	0	0	0	514	563	0	480	39	4	
12	0	0	0	0	505	565	0	500	39	4	
13	0	0	0	0	502	560	0	528	39	4	
14	0	0	0	0	508	552	0	534	39	4	
15	0	0	0	0	498	549	0	526	39	4	
0	0	0	0	0	510	548	0	515	39	4	
1	0	0	0	0	502	554	0	513	39	4	
2	0	0	0	0	500	557	0	503	39	4	
3	0	0	0	0	502	560	0	504	39	4	
4	0	0	0	0	501	567	0	498	39	4	
5	0	0	0	0	507	560	0	495	39	4	
6	0	0	0	0	502	560	0	500	39	4	
7	0	0	0	0	504	565	0	496	39	4	
8	0	0	0	0	498	568	0	501	39	4	
9	0	0	0	0	503	563	0	492	39	4	
10	0	0	0	0	501	556	0	488	39	4	
11	0	0	0	0	500	553	0	494	39	4	
12	0	0	0	0	506	549	0	493	39	4	
13	0	0	0	0	499	552	0	497	39	4	
14	0	0	0	0	507	553	0	498	39	4	
15	0	0	0	0	504	561	0	516	39	4	
0	0	0	0	0	499	563	0	539	39	4	
1	0	0	0	0	514	561	0	548	39	4	
2	0	0	0	0	498	556	0	567	39	4	
3	0	0	0	0	507	553	0	573	39	4	
4	0	0	0	0	499	553	0	580	39	4	
5	0	0	0	0	509	551	0	583	39	4	
6	0	0	0	0	511	550	0	578	39	4	
7	0	0	0	0	502	551	0	585	39	4	
8	0	0	0	0	509	559	0	572	39	4	
9	0	0	0	0	502	571	0	572	39	4	
10	0	0	0	0	511	573	0	576	39	4	
11	0	0	0	0	506	573	0	572	39	4	
12	0	0	0	0	495	571	0	581	39	4	
13	0	0	0	0	505	572	0	575	39	4	
14	0	0	0	0	499	575	0	575	39	4	
15	0	0	0	0	502	579	0	576	39	4	
0	0	0	0	0	499	578	0	560	39	4	
1	0	0	0	0	508	572	0	543	39	4	
2	0	0	0	0	507	566	0	545	39	4	
3	0	0	0	0	510	568	0	544	39	4	
4	0	0	0	0	502	573	0	547	39	4	
5	0	0	0	0	496	569	0	559	39	4	
6	0	0	0	0	504	574	0	561	39	4	
7	0	0	0	0	496	577	0	568	39	4	
8	0	0	0	0	504	576	0	561	39	4	
9	0	0	0	0	510	575	0	572	39	4	
10	0	0	0	0	497	573	0	560	39	4	
11	0	0	0	0	507	570	0	555	39	4	
12	0	0	0	0	506	569	0	563	39	4	
13	0	0	0	0	507	575	0	563	39	4	
14	0	0	0	0	504	582	0	560	39	4	
15	0	0	0	0	495	583	0	569	39	4	
0	0	0	0	0	500	586	0	565	39	4	
1	0	0	0	0	501	588	0	570	39	4	
2	0	0	0	0	515	592	0	565	39	4	
3	0	0	0	0	497	602	0	560	39	4	
4	0	0	0	0	496	616	0	567	39	4	
5	0	0	0	0	504	630	0	564	39	4	
6	0	0	0	0	501	639	0	569	39	4	
7	0	0	0	0	512	638	0	561	39	4	
8	0	0	0	0	507	628	0	556	39	4	
9	0	0	0	0	502	612	0	563	39	4	
10	0	0	0	0	502	593	0	551	39	4	
11	0	0	0	0	506	575	0	534	39	4	
12	0	0	0	0	505	563	0	515	39	4	
13	0	0	0	0	501	567	0	507	39	4	
14	0	0	0	0	507	568	0	495	39	4	
15	0	0	0	0	505	568	0	495	39	4	
0	0	0	0	0	508	564	0	490	39	4	
1	0	0	0	0	511	564	0	502	39	4	
2	0	0	0	0	503	570	0	488	39	4	
3	0	0	0	0	496	567	0	492	39	4	
4	0	0	0	0	494	559	0	517	39	4	
5	0	0	0	0	497	567	0	534	39	4	
6	0	0	0	0	502	582	0	546	39	4	
7	0	0	0	0	503	593	0	553	39	4	
8	0	0	0	0	504	597	0	540	39	4	
9	0	0	0	0	507	600	0	529	39	4	
10	0	0	0	0	508	595	0	527	39	4	
11	0	0	0	0	511	589	0	516	39	4	
12	0	0	0	0	503	586	0	527	39	4	
13	0	0	0	0	508	581	0	499	39	4	
14	0	0	0	0	500	578	0	497	39	4	
15	0	0	0	0	500	574	0	491	39	4	
0	0	0	0	0	507	573	0	483	39	4	
1	0	0	0	0	500	578	0	488	39	4	
2	0	0	0	0	508	582	0	483	39	4	
3	0	0	0	0	498	588	0	487	39	4	
4	0	0	0	0	507	595	0	484	39	4	
5	0	0	0	0	504	605	0	499	39	4	
6	0	0	0	0	496	611	0	517	39	4	
7	0	0	0	0	504	604	0	525	39	4	
8	0	0	0	0	500	601	0	545	39	4	
9	0	0	0	0	507	602	0	544	39	4	
10	0	0	0	0	507	598	0	531	39	4	
11	0	0	0	0	499	596	0	518	39	4	
12	0	0	0	0	504	593	0	505	39	4	
13	0	0	0	0	511	589	0	498	39	4	
14	0	0	0	0	508	574	0	489	39	4	
15	0	0	0	0	501	557	0	483	39	4	
0	0	0	0	0	499	541	0	484	39	4	
1	0	0	0	0	507	527	0	486	39	4	
2	0	0	0	0	507	522	0	506	39	4	
3	0	0	0	0	508	524	0	516	39	4	
4	0	0	0	0	514	530	0	510	39	4	
5	0	0	0	0	505	537	0	509	39	4	
6	0	0	0	0	495	535	0	502	39	4	
7	0	0	0	0	505	532	0	504	39	4	
8	0	0	0	0	506	532	0	515	39	4	
9	0	0	0	0	504	536	0	523	39	4	
10	0	0	0	0	492	551	0	519	39	4	
11	0	0	0	0	499	556	0	508	39	4	
12	0	0	0	0	503	558	0	505	39	4	
13	0	0	0	0	501	561	0	494	39	4	
14	0	0	0	0	512	558	0	500	39	4	
15	0	0	0	0	504	552	0	500	39	4	
0	0	0	0	0	508	538	0	499	39	4	
1	0	0	0	0	499	515	0	517	39	4	
2	0	0	0	0	502	499	0	520	39	4	
3	0	0	0	0	511	492	0	511	39	4	
4	0	0	0	0	499	488	0	506	39	4	
5	0	0	0	0	505	482	0	494	39	4	
6	0	0	0	0	500	477	0	490	39	4	
7	0	0	0	0	504	473	0	486	39	4	
8	0	0	0	0	511	472	0	475	39	4	
9	0	0	0	0	501	476	0	486	39	4	
10	0	0	0	0	499	471	0	509	39	4	
11	0	0	0	0	498	464	0	517	39	4	
12	0	0	0	0	500	467	0	510	39	4	
13	0	0	0	0	505	465	0	497	39	4	
14	0	0	0	0	504	463	0	495	39	4	
15	0	0	0	0	505	456	0	491	39	4	
0	0	0	0	0	504	452	0	506	39	4	
1	0	0	0	0	507	447	0	509	39	4	
2	0	0	0	0	509	443	0	501	39	4	
3	0	0	0	0	504	445	0	496	39	4	
4	0	0	0	0	500	445	0	486	39	4	
5	0	0	0	0	500	441	0	485	39	4	
6	0	0	0	0	500	440	0	482	39	4	
7	0	0	0	0	512	440	0	477	39	4	
8	0	0	0	0	502	443	0	488	39	4	
9	0	0	0	0	499	447	0	510	39	4	
10	0	0	0	0	498	445	0	511	39	4	
11	0	0	0	0	507	446	0	504	39	4	
12	0	0	0	0	507	451	0	508	39	4	
13	0	0	0	0	494	457	0	505	39	4	
14	0	0	0	0	502	455	0	494	39	4	
15	0	0	0	0	500	453	0	492	39	4	
0	0	0	0	0	502	453	0	482	39	4	
1	0	0	0	0	512	449	0	475	39	4	
2	0	0	0	0	502	444	0	487	39	4	
3	0	0	0	0	494	441	0	507	39	4	
4	0	0	0	0	503	439	0	520	39	4	
5	0	0	0	0	502	433	0	533	39	4	
6	0	0	0	0	513	423	0	539	39	4	
7	0	0	0	0	507	419	0	542	39	4	
8	0	0	0	0	498	411	0	547	39	4	
9	0	0	0	0	502	408	0	532	39	4	
10	0	0	0	0	508	416	0	513	39	4	
11	0	0	0	0	510	423	0	496	39	4	
12	0	0	0	0	500	431	0	493	39	4	
13	0	0	0	0	502	440	0	480	39	4	
14	0	0	0	0	495	436	0	480	39	4	
15	0	0	0	0	499	427	0	476	39	4	
0	0	0	0	0	507	422	0	472	39	4	
1	0	0	0	0	503	421	0	475	39	4	
2	0	0	0	0	510	419	0	476	39	4	
3	0	0	0	0	508	422	0	498	39	4	
4	0	0	0	0	501	427	0	512	39	4	
5	0	0	0	0	506	428	0	524	39	4	
6	0	0	0	0	505	432	0	531	39	4	
7	0	0	0	0	505	429	0	520	39	4	
8	0	0	0	0	494	423	0	510	38	4	
9	0	0	0	0	499	425	0	507	39	4	
10	0	0	0	0	508	434	0	496	39	4	
11	0	0	0	0	497	450	0	494	39	4	
12	0	0	0	0	502	457	0	484	39	4	
13	0	0	0	0	500	452	0	483	39	4	
14	0	0	0	0	503	444	0	478	39	4	
15	0	0	0	0	502	440	0	472	39	4	
0	0	0	0	0	504	447	0	478	39	4	
1	0	0	0	0	497	451	0	471	39	4	
2	0	0	0	0	499	458	0	475	39	4	
3	0	0	0	0	499	457	0	475	39	4	
4	0	0	0	0	504	449	0	488	39	4	
5	0	0	0	0	510	445	0	509	39	4	
6	0	0	0	0	501	447	0	510	39	4	
7	0	0	0	0	505	452	0	511	39	4	
8	0	0	0	0	502	458	0	523	39	4	
9	0	0	0	0	508	462	0	526	39	4	
10	0	0	0	0	502	465	0	520	39	4	
11	0	0	0	0	501	466	0	508	39	4	
12	0	0	0	0	502	470	0	502	39	4	
13	0	0	0	0	504	465	0	493	39	4	
14	0	0	0	0	502	451	0	484	39	4	
15	0	0	0	0	498	446	0	488	39	4	
0	0	0	0	0	507	445	0	488	39	4	
1	0	0	0	0	503	443	0	507	39	4	
2	0	0	0	0	504	442	0	512	39	4	
3	0	0	0	0	512	443	0	507	39	4	
4	0	0	0	0	507	442	0	505	39	4	
5	0	0	0	0	496	439	0	504	39	4	
6	0	0	0	0	497	440	0	512	39	4	
7	0	0	0	0	506	436	0	504	39	4	
8	0	0	0	0	507	429	0	513	39	4	
9	0	0	0	0	500	428	0	526	39	4	
10	0	0	0	0	511	432	0	522	39	4	
11	0	0	0	0	498	437	0	518	38	4	
12	0	0	0	0	497	449	0	520	39	4	
13	0	0	0	0	511	465	0	513	39	4	
14	0	0	0	0	501	480	0	508	39	4	
15	0	0	0	0	508	480	0	497	39	4	
0	0	0	0	0	507	472	0	499	39	4	
1	0	0	0	0	498	468	0	491	39	4	
2	0	0	0	0	502	461	0	499	39	4	
3	0	0	0	0	507	460	0	487	39	4	
4	0	0	0	0	510	458	0	490	39	4	
5	0	0	0	0	503	454	0	515	39	4	
6	0	0	0	0	505	452	0	531	39	4	
7	0	0	0	0	499	449	0	545	39	4	
8	0	0	0	0	503	446	0	555	39	4	
9	0	0	0	0	507	440	0	544	39	4	
10	0	0	0	0	500	440	0	532	39	4	
11	0	0	0	0	507	443	0	521	39	4	
12	0	0	0	0	505	447	0	510	39	4	
13	0	0	0	0	507	454	0	508	39	4	
14	0	0	0	0	497	459	0	500	39	4	
15	0	0	0	0	494	465	0	501	39	4	
0	0	0	0	0	502	469	0	496	39	4	
1	0	0	0	0	502	471	0	516	39	4	
2	0	0	0	0	504	470	0	534	39	4	
3	0	0	0	0	500	469	0	535	39	4	
4	0	0	0	0	504	471	0	529	39	4	
5	0	0	0	0	508	472	0	521	39	4	
6	0	0	0	0	508	472	0	509	39	4	
7	0	0	0	0	508	473	0	517	39	4	
8	0	0	0	0	498	472	0	528	39	4	
9	0	0	0	0	503	462	0	527	39	4	
10	0	0	0	0	498	460	0	519	39	4	
11	0	0	0	0	506	467	0	508	39	4	
12	0	0	0	0	503	473	0	518	39	4	
13	0	0	0	0	504	478	0	536	39	4	
14	0	0	0	0	497	487	0	542	39	4	
15	0	0	0	0	508	491	0	557	38	4	
0	0	0	0	0	509	493	0	566	39	4	
1	0	0	0	0	503	492	0	556	39	4	
2	0	0	0	0	496	480	0	540	39	4	
3	0	0	0	0	498	472	0	527	39	4	
4	0	0	0	0	510	471	0	516	39	4	
5	0	0	0	0	510	470	0	505	39	4	
6	0	0	0	0	503	468	0	503	39	4	
7	0	0	0	0	500	466	0	496	39	4	
8	0	0	0	0	499	472	0	501	39	4	
9	0	0	0	0	495	471	0	517	39	4	
10	0	0	0	0	504	471	0	530	39	4	
11	0	0	0	0	503	473	0	529	39	4	
12	0	0	0	0	506	472	0	523	39	4	
13	0	0	0	0	510	474	0	521	39	4	
14	0	0	0	0	504	480	0	513	39	4	
15	0	0	0	0	504	484	0	507	39	4	
0	0	0	0	0	494	491	0	518	39	4	
1	0	0	0	0	499	490	0	532	39	4	
2	0	0	0	0	496	484	0	533	39	4	
3	0	0	0	0	509	481	0	529	39	4	
4	0	0	0	0	507	480	0	519	39	4	
5	0	0	0	0	510	487	0	532	39	4	
6	0	0	0	0	502	490	0	505	39	4	
7	0	0	0	0	497	488	0	504	39	4	
8	0	0	0	0	504	484	0	501	39	4	
9	0	0	0	0	499	488	0	515	39	4	
10	0	0	0	0	501	492	0	536	39	4	
11	0	0	0	0	510	488	0	536	39	4	
12	0	0	0	0	492	491	0	529	38	4	
13	0	0	0	0	499	503	0	531	39	4	
14	0	0	0	0	512	516	0	523	39	4	
15	0	0	0	0	510	522	0	527	39	4	
0	0	0	0	0	498	522	0	560	39	4	
1	0	0	0	0	507	516	0	538	39	4	
2	0	0	0	0	503	509	0	528	39	4	
3	0	0	0	0	507	502	0	513	39	4	
4	0	0	0	0	502	496	0	508	39	4	
5	0	0	0	0	503	491	0	497	39	4	
6	0	0	0	0	499	489	0	497	39	4	
7	0	0	0	0	507	485	0	492	39	4	
8	0	0	0	0	508	479	0	487	39	4	
9	0	0	0	0	494	474	0	502	39	4	
10	0	0	0	0	496	471	0	525	39	4	
11	0	0	0	0	499	475	0	531	39	4	
12	0	0	0	0	500	480	0	527	39	4	
13	0	0	0	0	504	478	0	516	39	4	
14	0	0	0	0	499	483	0	513	39	4	
15	0	0	0	0	508	494	0	510	39	4	
0	0	0	0	0	503	507	0	526	39	4	
1	0	0	0	0	508	508	0	527	39	4	
2	0	0	0	0	514	498	0	519	39	4	
3	0	0	0	0	500	494	0	515	39	4	
4	0	0	0	0	500	486	0	505	39	4	
5	0	0	0	0	505	478	0	503	39	4	
6	0	0	0	0	504	472	0	497	39	4	
7	0	0	0	0	511	475	0	489	39	4	
8	0	0	0	0	504	486	0	504	39	4	
9	0	0	0	0	499	491	0	517	39	4	
10	0	0	0	0	499	496	0	520	39	4	
11	0	0	0	0	502	505	0	516	39	4	
12	0	0	0	0	504	505	0	525	39	4	
13	0	0	0	0	500	507	0	520	39	4	
14	0	0	0	0	501	507	0	510	39	4	
15	0	0	0	0	498	505	0	504	39	4	
0	0	0	0	0	503	504	0	498	39	4	
1	0	0	0	0	511	502	0	492	39	4	
2	0	0	0	0	502	497	0	508	39	4	
3	0	0	0	0	499	494	0	531	39	4	
4	0	0	0	0	505	496	0	537	39	4	
5	0	0	0	0	501	499	0	530	39	4	
6	0	0	0	0	508	505	0	516	39	4	
7	0	0	0	0	500	511	0	510	39	4	
8	0	0	0	0	510	501	0	495	39	4	
9	0	0	0	0	500	486	0	489	39	4	
10	0	0	0	0	502	482	0	480	39	4	
11	0	0	0	0	510	479	0	476	39	4	
12	0	0	0	0	500	475	0	480	39	4	
13	0	0	0	0	511	474	0	479	39	4	
14	0	0	0	0	503	472	0	483	39	4	
15	0	0	0	0	508	468	0	482	39	4	
0	0	0	0	0	505	467	0	477	39	4	
1	0	0	0	0	504	479	0	480	39	4	
2	0	0	0	0	500	490	0	478	39	4	
3	0	0	0	0	504	494	0	484	39	4	
4	0	0	0	0	499	503	0	483	39	4	
5	0	0	0	0	504	510	0	482	39	4	
6	0	0	0	0	505	513	0	487	39	4	
7	0	0	0	0	500	511	0	483	39	4	
8	0	0	0	0	499	512	0	482	39	4	
9	0	0	0	0	508	505	0	480	39	4	
10	0	0	0	0	507	499	0	476	39	4	
11	0	0	0	0	500	489	0	482	39	4	
12	0	0	0	0	504	486	0	482	39	4	
13	0	0	0	0	502	492	0	486	39	4	
14	0	0	0	0	499	498	0	487	39	4	
15	0	0	0	0	497	505	0	506	39	4	
0	0	0	0	0	502	507	0	523	39	4	
1	0	0	0	0	505	502	0	521	39	4	
2	0	0	0	0	499	500	0	517	39	4	
3	0	0	0	0	497	497	0	508	39	4	
4	0	0	0	0	505	488	0	498	39	4	
5	0	0	0	0	501	486	0	499	39	4	
6	0	0	0	0	500	490	0	490	39	4	
7	0	0	0	0	501	494	0	494	39	4	
8	0	0	0	0	507	501	0	485	39	4	
9	0	0	0	0	507	509	0	477	39	4	
10	0	0	0	0	499	507	0	481	39	4	
11	0	0	0	0	501	496	0	481	39	4	
12	0	0	0	0	504	494	0	486	39	4	
13	0	0	0	0	508	496	0	486	39	4	
14	0	0	0	0	509	497	0	486	39	4	
15	0	0	0	0	501	498	0	489	39	4	
0	0	0	0	0	493	493	0	499	39	4	
1	0	0	0	0	503	492	0	482	39	4	
2	0	0	0	0	503	502	0	496	39	4	
3	0	0	0	0	508	521	0	480	39	4	
4	0	0	0	0	502	532	0	488	39	4	
5	0	0	0	0	504	529	0	488	39	4	
6	0	0	0	0	503	529	0	492	39	4	
7	0	0	0	0	505	531	0	490	39	4	
8	0	0	0	0	499	529	0	506	39	4	
9	0	0	0	0	500	525	0	520	39	4	
10	0	0	0	0	506	508	0	519	39	4	
11	0	0	0	0	497	483	0	518	39	4	
12	0	0	0	0	499	469	0	507	39	4	
13	0	0	0	0	516	467	0	497	39	4	
14	0	0	0	0	501	473	0	496	39	4	
15	0	0	0	0	502	477	0	487	39	4	
0	0	0	0	0	503	487	0	484	39	4	
1	0	0	0	0	499	492	0	479	39	4	
2	0	0	0	0	503	497	0	473	39	4	
3	0	0	0	0	500	504	0	479	39	4	
4	0	0	0	0	507	511	0	479	39	4	
5	0	0	0	0	495	515	0	480	39	4	
6	0	0	0	0	496	516	0	479	39	4	
7	0	0	0	0	508	511	0	480	39	4	
8	0	0	0	0	499	515	0	499	39	4	
9	0	0	0	0	508	506	0	475	39	4	
10	0	0	0	0	503	496	0	475	39	4	
11	0	0	0	0	507	483	0	475	39	4	
12	0	0	0	0	504	472	0	474	39	4	
13	0	0	0	0	505	475	0	480	39	4	
14	0	0	0	0	505	481	0	479	39	4	
15	0	0	0	0	500	482	0	483	39	4	
0	0	0	0	0	501	487	0	476	39	4	
1	0	0	0	0	511	491	0	473	39	4	
2	0	0	0	0	505	494	0	493	39	4	
3	0	0	0	0	499	501	0	524	39	4	
4	0	0	0	0	501	509	0	529	39	4	
5	0	0	0	0	507	512	0	521	39	4	
6	0	0	0	0	508	513	0	508	39	4	
7	0	0	0	0	493	515	0	503	39	4	
8	0	0	0	0	504	515	0	487	39	4	
9	0	0	0	0	500	517	0	484	39	4	
10	0	0	0	0	500	514	0	480	39	4	
11	0	0	0	0	512	517	0	478	39	4	
12	0	0	0	0	502	516	0	487	39	4	
13	0	0	0	0	504	505	0	485	39	4	
14	0	0	0	0	508	497	0	485	39	4	
15	0	0	0	0	503	493	0	483	39	4	
0	0	0	0	0	502	498	0	498	39	4	
1	0	0	0	0	502	504	0	526	39	4	
2	0	0	0	0	505	500	0	539	39	4	
3	0	0	0	0	498	499	0	559	39	4	
4	0	0	0	0	508	494	0	561	39	4	
5	0	0	0	0	501	495	0	568	39	4	
6	0	0	0	0	501	493	0	570	39	4	
7	0	0	0	0	507	481	0	571	39	4	
8	0	0	0	0	497	479	0	575	39	4	
9	0	0	0	0	501	491	0	572	39	4	
10	0	0	0	0	504	497	0	574	39	4	
11	0	0	0	0	507	501	0	573	39	4	
12	0	0	0	0	504	503	0	565	39	4	
13	0	0	0	0	504	506	0	574	39	4	
14	0	0	0	0	507	510	0	571	39	4	
15	0	0	0	0	500	506	0	572	39	4	
0	0	0	0	0	512	508	0	569	39	4	
1	0	0	0	0	508	512	0	550	39	4	
2	0	0	0	0	504	515	0	534	39	4	
3	0	0	0	0	501	517	0	514	39	4	
4	0	0	0	0	505	523	0	498	39	4	
5	0	0	0	0	507	535	0	495	39	4	
6	0	0	0	0	498	545	0	487	39	4	
7	0	0	0	0	497	550	0	489	39	4	
8	0	0	0	0	499	546	0	480	39	4	
9	0	0	0	0	506	538	0	476	39	4	
10	0	0	0	0	504	536	0	480	39	4	
11	0	0	0	0	501	538	0	478	39	4	
12	0	0	0	0	503	531	0	482	39	4	
13	0	0	0	0	507	515	0	482	39	4	
14	0	0	0	0	512	503	0	481	39	4	
15	0	0	0	0	496	498	0	485	39	4	
0	0	0	0	0	504	496	0	479	39	4	
1	0	0	0	0	502	499	0	480	39	4	
2	0	0	0	0	499	503	0	479	39	4	
3	0	0	0	0	508	500	0	478	39	4	
4	0	0	0	0	503	499	0	488	39	4	
5	0	0	0	0	497	499	0	487	39	4	
6	0	0	0	0	492	510	0	493	39	4	
7	0	0	0	0	505	522	0	492	39	4	
8	0	0	0	0	505	524	0	512	39	4	
9	0	0	0	0	506	523	0	531	39	4	
10	0	0	0	0	506	521	0	534	39	4	
11	0	0	0	0	501	521	0	533	39	4	
12	0	0	0	0	505	519	0	521	39	4	
13	0	0	0	0	504	516	0	510	39	4	
14	0	0	0	0	502	511	0	505	39	4	
15	0	0	0	0	507	504	0	499	39	4	
0	0	0	0	0	504	505	0	504	39	4	
1	0	0	0	0	503	519	0	524	39	4	
2	0	0	0	0	507	534	0	537	39	4	
3	0	0	0	0	499	545	0	551	39	4	
4	0	0	0	0	507	540	0	567	39	4	
5	0	0	0	0	502	529	0	564	39	4	
6	0	0	0	0	500	515	0	572	39	4	
7	0	0	0	0	506	499	0	572	39	4	
8	0	0	0	0	503	483	0	569	39	4	
9	0	0	0	0	495	486	0	577	39	4	
10	0	0	0	0	506	487	0	572	39	4	
11	0	0	0	0	507	485	0	576	39	4	
12	0	0	0	0	516	482	0	573	39	4	
13	0	0	0	0	504	476	0	569	39	4	
14	0	0	0	0	496	472	0	575	39	4	
15	0	0	0	0	497	475	0	569	39	4	
0	0	0	0	0	498	479	0	569	39	4	
1	0	0	0	0	507	486	0	573	39	4	
2	0	0	0	0	504	495	0	557	39	4	
3	0	0	0	0	497	503	0	564	39	4	
4	0	0	0	0	506	502	0	556	39	4	
5	0	0	0	0	503	494	0	561	39	4	
6	0	0	0	0	508	490	0	557	39	4	
7	0	0	0	0	502	495	0	552	39	4	
8	0	0	0	0	494	499	0	559	39	4	
9	0	0	0	0	504	502	0	553	39	4	
10	0	0	0	0	504	506	0	560	39	4	
11	0	0	0	0	507	513	0	558	39	4	
12	0	0	0	0	508	515	0	574	39	4	
13	0	0	0	0	501	516	0	568	39	4	
14	0	0	0	0	508	519	0	565	39	4	
15	0	0	0	0	503	513	0	569	39	4	
0	0	0	0	0	504	509	0	567	39	4	
1	0	0	0	0	505	504	0	561	39	4	
2	0	0	0	0	495	498	0	568	39	4	
3	0	0	0	0	504	496	0	562	39	4	
4	0	0	0	0	501	492	0	569	39	4	
5	0	0	0	0	504	491	0	568	39	4	
6	0	0	0	0	505	499	0	564	39	4	
7	0	0	0	0	499	507	0	569	39	4	
8	0	0	0	0	505	508	0	560	39	4	
9	0	0	0	0	500	503	0	566	39	4	
10	0	0	0	0	509	505	0	561	39	4	
11	0	0	0	0	506	508	0	560	39	4	
12	0	0	0	0	495	504	0	566	39	4	
13	0	0	0	0	492	502	0	562	39	4	
14	0	0	0	0	508	496	0	567	39	4	
15	0	0	0	0	516	489	0	561	39	4	
0	0	0	0	0	512	485	0	564	39	4	
1	0	0	0	0	496	484	0	562	39	4	
2	0	0	0	0	507	484	0	552	39	4	
3	0	0	0	0	506	482	0	548	39	4	
4	0	0	0	0	504	486	0	532	39	4	
5	0	0	0	0	496	487	0	521	39	4	
6	0	0	0	0	499	487	0	507	39	4	
7	0	0	0	0	500	492	0	499	39	4	
8	0	0	0	0	501	496	0	492	39	4	
9	0	0	0	0	505	495	0	487	39	4	
10	0	0	0	0	507	492	0	499	39	4	
11	0	0	0	0	497	499	0	522	39	4	
12	0	0	0	0	501	505	0	531	39	4	
13	0	0	0	0	503	513	0	546	39	4	
14	0	0	0	0	501	519	0	554	39	4	
15	0	0	0	0	504	523	0	556	39	4	
0	0	0	0	0	505	518	0	560	39	4	
1	0	0	0	0	508	513	0	548	39	4	
2	0	0	0	0	506	508	0	550	39	4	
3	0	0	0	0	508	511	0	547	39	4	
4	0	0	0	0	503	516	0	549	39	4	
5	0	0	0	0	496	512	0	556	39	4	
6	0	0	0	0	505	506	0	550	39	4	
7	0	0	0	0	502	502	0	550	39	4	
8	0	0	0	0	512	503	0	543	39	4	
9	0	0	0	0	498	509	0	538	39	4	
10	0	0	0	0	494	504	0	547	39	4	
11	0	0	0	0	499	500	0	542	39	4	
12	0	0	0	0	501	504	0	527	39	4	
13	0	0	0	0	511	499	0	510	39	4	
14	0	0	0	0	504	498	0	502	39	4	
15	0	0	0	0	499	503	0	496	39	4	
0	0	0	0	0	499	520	0	507	39	4	
1	0	0	0	0	503	526	0	524	39	4	
2	0	0	0	0	514	536	0	531	39	4	
3	0	0	0	0	504	542	0	529	39	4	
4	0	0	0	0	506	537	0	514	39	4	
5	0	0	0	0	498	532	0	508	39	4	
6	0	0	0	0	504	532	0	499	39	4	
7	0	0	0	0	502	539	0	492	39	4	
8	0	0	0	0	505	545	0	494	39	4	
9	0	0	0	0	511	551	0	494	39	4	
10	0	0	0	0	495	565	0	514	39	4	
11	0	0	0	0	495	583	0	520	39	4	
12	0	0	0	0	502	596	0	512	39	4	
13	0	0	0	0	510	601	0	505	39	4	
14	0	0	0	0	504	603	0	493	39	4	
15	0	0	0	0	503	602	0	493	39	4	
0	0	0	0	0	502	608	0	502	39	4	
1	0	0	0	0	509	617	0	510	39	4	
2	0	0	0	0	505	625	0	520	39	4	
3	0	0	0	0	499	627	0	534	39	4	
4	0	0	0	0	498	621	0	535	39	4	
5	0	0	0	0	504	612	0	524	39	4	
6	0	0	0	0	502	606	0	527	39	4	
7	0	0	0	0	499	604	0	529	39	4	
8	0	0	0	0	509	594	0	524	39	4	
9	0	0	0	0	501	586	0	534	39	4	
10	0	0	0	0	496	580	0	529	39	4	
11	0	0	0	0	502	572	0	534	39	4	
12	0	0	0	0	505	566	0	539	39	4	
13	0	0	0	0	508	551	0	536	39	4	
14	0	0	0	0	502	534	0	547	39	4	
15	0	0	0	0	504	518	0	539	39	4	
0	0	0	0	0	500	502	0	536	39	4	
1	0	0	0	0	501	492	0	526	39	4	
2	0	0	0	0	503	478	0	507	39	4	
3	0	0	0	0	499	461	0	499	39	4	
4	0	0	0	0	504	454	0	489	39	4	
5	0	0	0	0	500	443	0	479	39	4	
6	0	0	0	0	502	425	0	496	39	4	
7	0	0	0	0	509	405	0	474	39	4	
8	0	0	0	0	504	385	0	476	39	4	
9	0	0	0	0	504	384	0	472	39	4	
10	0	0	0	0	504	397	0	470	39	4	
11	0	0	0	0	502	392	0	483	39	4	
12	0	0	0	0	499	377	0	505	39	4	
13	0	0	0	0	510	361	0	518	39	4	
14	0	0	0	0	502	346	0	532	39	4	
15	0	0	0	0	504	338	0	536	39	4	
0	0	0	0	0	501	336	0	536	39	4	
1	0	0	0	0	504	335	0	543	39	4	
2	0	0	0	0	502	330	0	533	39	4	
3	0	0	0	0	505	328	0	522	39	4	
4	0	0	0	0	501	327	0	503	39	4	
5	0	0	0	0	505	330	0	497	39	4	
6	0	0	0	0	509	332	0	486	39	4	
7	0	0	0	0	497	339	0	485	39	4	
8	0	0	0	0	499	348	0	481	39	4	
9	0	0	0	0	495	355	0	492	39	4	
10	0	0	0	0	503	361	0	512	39	4	
11	0	0	0	0	504	372	0	512	39	4	
12	0	0	0	0	503	388	0	509	39	4	
13	0	0	0	0	504	402	0	511	39	4	
14	0	0	0	0	502	411	0	503	39	4	
15	0	0	0	0	510	418	0	512	39	4	
0	0	0	0	0	502	421	0	526	39	4	
1	0	0	0	0	493	424	0	528	39	4	
2	0	0	0	0	503	429	0	535	39	4	
3	0	0	0	0	513	437	0	534	39	4	
4	0	0	0	0	498	446	0	534	39	4	
5	0	0	0	0	499	453	0	545	39	4	
6	0	0	0	0	499	461	0	540	39	4	
7	0	0	0	0	503	466	0	543	39	4	
8	0	0	0	0	509	475	0	542	39	4	
9	0	0	0	0	503	485	0	528	39	4	
10	0	0	0	0	507	494	0	511	39	4	
11	0	0	0	0	498	505	0	503	39	4	
12	0	0	0	0	504	516	0	490	39	4	
13	0	0	0	0	508	520	0	481	39	4	
14	0	0	0	0	504	528	0	482	39	4	
15	0	0	0	0	501	535	0	475	39	4	
0	0	0	0	0	501	531	0	496	39	4	
1	0	0	0	0	496	525	0	494	39	4	
2	0	0	0	0	508	531	0	510	39	4	
3	0	0	0	0	508	548	0	521	39	4	
4	0	0	0	0	503	553	0	535	39	4	
5	0	0	0	0	503	548	0	536	39	4	
6	0	0	0	0	505	536	0	543	39	4	
7	0	0	0	0	509	531	0	541	39	4	
8	0	0	0	0	505	536	0	537	39	4	
9	0	0	0	0	495	541	0	540	39	4	
10	0	0	0	0	503	551	0	535	39	4	
11	0	0	0	0	506	557	0	540	39	4	
12	0	0	0	0	505	562	0	540	39	4	
13	0	0	0	0	501	573	0	528	39	4	
14	0	0	0	0	510	574	0	519	39	4	
15	0	0	0	0	496	569	0	529	39	4	
0	0	0	0	0	500	568	0	527	39	4	
1	0	0	0	0	503	567	0	531	39	4	
2	0	0	0	0	505	566	0	540	39	4	
3	0	0	0	0	507	565	0	536	39	4	
4	0	0	0	0	505	562	0	530	39	4	
5	0	0	0	0	504	558	0	513	39	4	
6	0	0	0	0	511	562	0	496	39	4	
7	0	0	0	0	506	566	0	490	39	4	
8	0	0	0	0	499	563	0	476	39	4	
9	0	0	0	0	504	553	0	470	39	4	
10	0	0	0	0	505	540	0	465	39	4	
11	0	0	0	0	502	537	0	481	39	4	
12	0	0	0	0	500	543	0	495	39	4	
13	0	0	0	0	498	547	0	495	39	4	
14	0	0	0	0	504	551	0	497	39	4	
15	0	0	0	0	497	552	0	510	39	4	
0	0	0	0	0	503	548	0	512	39	4	
1	0	0	0	0	505	549	0	520	39	4	
2	0	0	0	0	510	551	0	497	39	4	
3	0	0	0	0	502	556	0	514	39	4	
4	0	0	0	0	503	557	0	521	39	4	
5	0	0	0	0	511	554	0	508	39	4	
6	0	0	0	0	501	546	0	508	39	4	
7	0	0	0	0	491	543	0	515	39	4	
8	0	0	0	0	502	548	0	513	39	4	
9	0	0	0	0	501	551	0	525	39	4	
10	0	0	0	0	510	551	0	529	39	4	
11	0	0	0	0	505	554	0	519	39	4	
12	0	0	0	0	504	556	0	511	39	4	
13	0	0	0	0	503	560	0	512	39	4	
14	0	0	0	0	505	567	0	499	39	4	
15	0	0	0	0	500	571	0	507	39	4	
0	0	0	0	0	499	573	0	517	39	4	
1	0	0	0	0	510	574	0	520	39	4	
2	0	0	0	0	498	571	0	536	39	4	
3	0	0	0	0	504	566	0	534	39	4	
4	0	0	0	0	503	559	0	520	39	4	
5	0	0	0	0	504	554	0	509	39	4	
6	0	0	0	0	502	561	0	493	39	4	
7	0	0	0	0	502	565	0	493	39	4	
8	0	0	0	0	501	563	0	500	39	4	
9	0	0	0	0	511	561	0	519	39	4	
10	0	0	0	0	503	574	0	508	39	4	
11	0	0	0	0	500	578	0	495	39	4	
12	0	0	0	0	500	573	0	491	39	4	
13	0	0	0	0	503	564	0	483	39	4	
14	0	0	0	0	503	559	0	472	39	4	
15	0	0	0	0	503	561	0	475	39	4	
0	0	0	0	0	495	563	0	479	39	4	
1	0	0	0	0	503	564	0	496	39	4	
2	0	0	0	0	513	566	0	501	39	4	
3	0	0	0	0	510	572	0	495	39	4	
4	0	0	0	0	508	572	0	492	39	4	
5	0	0	0	0	503	558	0	480	39	4	
6	0	0	0	0	508	550	0	478	39	4	
7	0	0	0	0	497	542	0	473	39	4	
8	0	0	0	0	501	542	0	467	39	4	
9	0	0	0	0	508	553	0	468	39	4	
10	0	0	0	0	504	553	0	462	39	4	
11	0	0	0	0	499	544	0	463	39	4	
12	0	0	0	0	498	536	0	463	39	4	
13	0	0	0	0	501	536	0	463	39	4	
14	0	0	0	0	511	540	0	466	39	4	
15	0	0	0	0	504	543	0	465	39	4	
0	0	0	0	0	504	551	0	464	39	4	
1	0	0	0	0	502	561	0	460	39	4	
2	0	0	0	0	502	565	0	458	39	4	
3	0	0	0	0	501	568	0	459	39	4	
4	0	0	0	0	500	564	0	459	39	4	
5	0	0	0	0	499	560	0	464	39	4	
6	0	0	0	0	498	554	0	468	39	4	
7	0	0	0	0	506	556	0	468	39	4	
8	0	0	0	0	509	560	0	473	39	4	
9	0	0	0	0	503	560	0	467	39	4	
10	0	0	0	0	500	555	0	472	39	4	
11	0	0	0	0	500	548	0	494	39	4	
12	0	0	0	0	506	552	0	509	39	4	
13	0	0	0	0	504	560	0	510	39	4	
14	0	0	0	0	500	565	0	498	39	4	
15	0	0	0	0	501	568	0	495	39	4	
0	0	0	0	0	505	567	0	480	39	4	
1	0	0	0	0	504	571	0	472	39	4	
2	0	0	0	0	503	575	0	473	39	4	
3	0	0	0	0	506	574	0	469	39	4	
4	0	0	0	0	499	585	0	470	39	4	
5	0	0	0	0	508	592	0	470	39	4	
6	0	0	0	0	514	590	0	469	39	4	
7	0	0	0	0	504	587	0	470	39	4	
8	0	0	0	0	500	583	0	464	39	4	
9	0	0	0	0	497	582	0	463	39	4	
10	0	0	0	0	502	586	0	463	39	4	
11	0	0	0	0	511	590	0	464	39	4	
12	0	0	0	0	500	594	0	468	39	4	
13	0	0	0	0	501	594	0	467	39	4	
14	0	0	0	0	501	590	0	470	39	4	
15	0	0	0	0	504	580	0	471	39	4	
0	0	0	0	0	508	572	0	467	39	4	
1	0	0	0	0	505	572	0	467	39	4	
2	0	0	0	0	501	581	0	463	39	4	
3	0	0	0	0	503	592	0	468	39	4	
4	0	0	0	0	499	591	0	469	39	4	
5	0	0	0	0	502	587	0	467	39	4	
6	0	0	0	0	508	581	0	487	39	4	
7	0	0	0	0	500	572	0	512	39	4	
8	0	0	0	0	496	564	0	534	39	4	
9	0	0	0	0	512	563	0	512	39	4	
10	0	0	0	0	507	567	0	498	39	4	
11	0	0	0	0	510	573	0	492	39	4	
12	0	0	0	0	504	578	0	481	39	4	
13	0	0	0	0	495	587	0	479	39	4	
14	0	0	0	0	499	594	0	473	39	4	
15	0	0	0	0	508	601	0	469	39	4	
0	0	0	0	0	499	608	0	464	39	4	
1	0	0	0	0	502	606	0	455	39	4	
2	0	0	0	0	499	601	0	459	39	4	
3	0	0	0	0	505	593	0	461	39	4	
4	0	0	0	0	504	590	0	463	39	4	
5	0	0	0	0	504	589	0	468	39	4	
6	0	0	0	0	504	588	0	467	39	4	
7	0	0	0	0	506	587	0	469	39	4	
8	0	0	0	0	506	584	0	466	39	4	
9	0	0	0	0	510	588	0	462	39	4	
10	0	0	0	0	502	588	0	469	39	4	
11	0	0	0	0	504	584	0	466	39	4	
12	0	0	0	0	500	586	0	472	39	4	
13	0	0	0	0	501	591	0	493	39	4	
14	0	0	0	0	503	591	0	509	39	4	
15	0	0	0	0	498	589	0	520	39	4	
0	0	0	0	0	497	587	0	535	39	4	
1	0	0	0	0	505	584	0	534	39	4	
2	0	0	0	0	501	583	0	540	39	4	
3	0	0	0	0	511	583	0	546	39	4	
4	0	0	0	0	506	590	0	546	39	4	
5	0	0	0	0	497	595	0	554	39	4	
6	0	0	0	0	505	590	0	545	39	4	
7	0	0	0	0	503	576	0	549	39	4	
8	0	0	0	0	508	568	0	547	39	4	
9	0	0	0	0	507	563	0	544	39	4	
10	0	0	0	0	499	559	0	551	39	4	
11	0	0	0	0	501	551	0	544	39	4	
12	0	0	0	0	506	539	0	547	39	4	
13	0	0	0	0	508	544	0	546	39	4	
14	0	0	0	0	507	560	0	544	39	4	
15	0	0	0	0	496	566	0	550	39	4	
0	0	0	0	0	502	565	0	546	39	4	
1	0	0	0	0	502	563	0	549	39	4	
2	0	0	0	0	504	568	0	544	39	4	
3	0	0	0	0	500	580	0	542	39	4	
4	0	0	0	0	504	586	0	550	39	4	
5	0	0	0	0	497	587	0	546	39	4	
6	0	0	0	0	507	583	0	548	39	4	
7	0	0	0	0	505	576	0	545	39	4	
8	0	0	0	0	500	574	0	541	39	4	
9	0	0	0	0	511	568	0	543	39	4	
10	0	0	0	0	500	564	0	535	39	4	
11	0	0	0	0	503	559	0	537	39	4	
12	0	0	0	0	507	549	0	534	39	4	
13	0	0	0	0	504	541	0	533	39	4	
14	0	0	0	0	497	537	0	535	39	4	
15	0	0	0	0	508	539	0	529	39	4	
0	0	0	0	0	501	535	0	529	39	4	
1	0	0	0	0	506	528	0	529	39	4	
2	0	0	0	0	500	526	0	525	39	4	
3	0	0	0	0	504	526	0	515	39	4	
4	0	0	0	0	504	526	0	506	39	4	
5	0	0	0	0	505	517	0	510	39	4	
6	0	0	0	0	505	513	0	483	39	4	
7	0	0	0	0	502	516	0	483	39	4	
8	0	0	0	0	497	519	0	474	39	4	
9	0	0	0	0	492	523	0	476	39	4	
10	0	0	0	0	496	523	0	475	39	4	
11	0	0	0	0	503	515	0	491	39	4	
12	0	0	0	0	506	503	0	508	39	4	
13	0	0	0	0	499	488	0	509	39	4	
14	0	0	0	0	503	478	0	507	39	4	
15	0	0	0	0	503	474	0	497	39	4	
0	0	0	0	0	512	474	0	491	39	4	
1	0	0	0	0	510	471	0	497	39	4	
2	0	0	0	0	504	465	0	515	39	4	
3	0	0	0	0	493	460	0	520	39	4	
4	0	0	0	0	502	462	0	513	39	4	
5	0	0	0	0	511	462	0	501	39	4	
6	0	0	0	0	502	465	0	497	39	4	
7	0	0	0	0	507	460	0	492	39	4	
8	0	0	0	0	510	453	0	507	39	4	
9	0	0	0	0	503	446	0	508	39	4	
10	0	0	0	0	503	438	0	518	39	4	
11	0	0	0	0	501	442	0	527	39	4	
12	0	0	0	0	508	449	0	528	39	4	
13	0	0	0	0	500	447	0	541	39	4	
14	0	0	0	0	503	443	0	534	39	4	
15	0	0	0	0	504	444	0	537	39	4	
0	0	0	0	0	500	447	0	539	39	4	
1	0	0	0	0	504	446	0	529	39	4	
2	0	0	0	0	499	447	0	524	39	4	
3	0	0	0	0	498	446	0	510	39	4	
4	0	0	0	0	510	442	0	494	39	4	
5	0	0	0	0	503	446	0	490	39	4	
6	0	0	0	0	501	450	0	477	39	4	
7	0	0	0	0	503	447	0	477	39	4	
8	0	0	0	0	504	441	0	475	39	4	
9	0	0	0	0	505	438	0	471	39	4	
10	0	0	0	0	500	441	0	476	39	4	
11	0	0	0	0	507	444	0	470	39	4	
12	0	0	0	0	507	446	0	491	39	4	
13	0	0	0	0	499	446	0	497	39	4	
14	0	0	0	0	506	434	0	515	39	4	
15	0	0	0	0	508	417	0	515	39	4	
0	0	0	0	0	501	412	0	510	39	4	
1	0	0	0	0	495	417	0	525	39	4	
2	0	0	0	0	505	416	0	525	39	4	
3	0	0	0	0	508	414	0	532	39	4	
4	0	0	0	0	510	415	0	539	39	4	
5	0	0	0	0	508	418	0	536	39	4	
6	0	0	0	0	505	421	0	547	39	4	
7	0	0	0	0	503	423	0	540	39	4	
8	0	0	0	0	508	426	0	521	39	4	
9	0	0	0	0	506	425	0	515	39	4	
10	0	0	0	0	506	414	0	494	39	4	
11	0	0	0	0	499	419	0	501	39	4	
12	0	0	0	0	503	433	0	494	39	4	
13	0	0	0	0	507	441	0	486	39	4	
14	0	0	0	0	499	447	0	488	39	4	
15	0	0	0	0	508	452	0	480	39	4	
0	0	0	0	0	505	444	0	480	39	4	
1	0	0	0	0	501	440	0	476	39	4	
2	0	0	0	0	505	435	0	494	39	4	
3	0	0	0	0	501	432	0	515	39	4	
4	0	0	0	0	502	432	0	516	39	4	
5	0	0	0	0	495	440	0	510	39	4	
6	0	0	0	0	505	441	0	502	39	4	
7	0	0	0	0	510	437	0	492	39	4	
8	0	0	0	0	502	442	0	497	39	4	
9	0	0	0	0	494	443	0	508	39	4	
10	0	0	0	0	498	444	0	511	39	4	
11	0	0	0	0	504	442	0	502	39	4	
12	0	0	0	0	507	439	0	492	39	4	
13	0	0	0	0	498	435	0	493	39	4	
14	0	0	0	0	503	423	0	482	39	4	
15	0	0	0	0	504	422	0	484	39	4	
0	0	0	0	0	502	426	0	481	39	4	
1	0	0	0	0	499	437	0	498	39	4	
2	0	0	0	0	505	452	0	520	39	4	
3	0	0	0	0	501	463	0	519	39	4	
4	0	0	0	0	500	470	0	512	39	4	
5	0	0	0	0	506	465	0	504	39	4	
6	0	0	0	0	510	455	0	496	39	4	
7	0	0	0	0	505	450	0	505	39	4	
8	0	0	0	0	504	455	0	520	39	4	
9	0	0	0	0	497	463	0	518	39	4	
10	0	0	0	0	501	468	0	509	39	4	
11	0	0	0	0	508	465	0	514	39	4	
12	0	0	0	0	497	456	0	517	39	4	
13	0	0	0	0	503	455	0	513	39	4	
14	0	0	0	0	507	465	0	510	39	4	
15	0	0	0	0	507	472	0	501	39	4	
0	0	0	0	0	511	472	0	493	39	4	
1	0	0	0	0	503	465	0	494	39	4	
2	0	0	0	0	496	452	0	493	39	4	
3	0	0	0	0	499	444	0	516	39	4	
4	0	0	0	0	501	444	0	528	39	4	
5	0	0	0	0	507	444	0	520	39	4	
6	0	0	0	0	503	444	0	514	39	4	
7	0	0	0	0	510	447	0	501	39	4	
8	0	0	0	0	500	456	0	499	39	4	
9	0	0	0	0	496	463	0	513	39	4	
10	0	0	0	0	512	468	0	520	39	4	
11	0	0	0	0	502	476	0	515	39	4	
12	0	0	0	0	504	477	0	503	39	4	
13	0	0	0	0	496	474	0	498	39	4	
14	0	0	0	0	497	470	0	489	39	4	
15	0	0	0	0	505	472	0	481	39	4	
0	0	0	0	0	506	476	0	491	39	4	
1	0	0	0	0	500	478	0	506	39	4	
2	0	0	0	0	496	474	0	519	39	4	
3	0	0	0	0	504	468	0	502	39	4	
4	0	0	0	0	504	465	0	494	39	4	
5	0	0	0	0	499	465	0	494	39	4	
6	0	0	0	0	507	467	0	484	39	4	
7	0	0	0	0	499	464	0	484	39	4	
8	0	0	0	0	506	460	0	481	39	4	
9	0	0	0	0	511	461	0	494	39	4	
10	0	0	0	0	497	465	0	518	39	4	
11	0	0	0	0	502	471	0	523	39	4	
12	0	0	0	0	497	477	0	542	39	4	
13	0	0	0	0	508	480	0	547	39	4	
14	0	0	0	0	502	468	0	548	39	4	
15	0	0	0	0	504	463	0	566	39	4	
0	0	0	0	0	509	466	0	539	39	4	
1	0	0	0	0	503	460	0	544	39	4	
2	0	0	0	0	510	450	0	540	39	4	
3	0	0	0	0	498	444	0	543	39	4	
4	0	0	0	0	500	449	0	544	39	4	
5	0	0	0	0	502	453	0	539	39	4	
6	0	0	0	0	502	453	0	536	39	4	
7	0	0	0	0	502	452	0	542	39	4	
8	0	0	0	0	513	450	0	543	39	4	
9	0	0	0	0	508	456	0	528	39	4	
10	0	0	0	0	499	463	0	511	39	4	
11	0	0	0	0	500	468	0	500	39	4	
12	0	0	0	0	504	470	0	489	39	4	
13	0	0	0	0	501	468	0	479	39	4	
14	0	0	0	0	504	470	0	482	39	4	
15	0	0	0	0	501	471	0	477	39	4	
0	0	0	0	0	497	479	0	480	39	4	
1	0	0	0	0	502	495	0	480	39	4	
2	0	0	0	0	503	502	0	494	39	4	
3	0	0	0	0	510	506	0	516	39	4	
4	0	0	0	0	513	510	0	523	39	4	
5	0	0	0	0	502	505	0	542	39	4	
6	0	0	0	0	503	501	0	543	39	4	
7	0	0	0	0	499	494	0	547	39	4	
8	0	0	0	0	500	484	0	546	39	4	
9	0	0	0	0	508	479	0	529	39	4	
10	0	0	0	0	498	481	0	515	39	4	
11	0	0	0	0	499	481	0	513	39	4	
12	0	0	0	0	503	483	0	502	39	4	
13	0	0	0	0	497	487	0	496	39	4	
14	0	0	0	0	498	494	0	487	39	4	
15	0	0	0	0	496	497	0	484	39	4	
0	0	0	0	0	510	491	0	496	39	4	
1	0	0	0	0	505	480	0	472	39	4	
2	0	0	0	0	508	473	0	486	39	4	
3	0	0	0	0	501	474	0	507	39	4	
4	0	0	0	0	507	481	0	515	39	4	
5	0	0	0	0	506	479	0	506	39	4	
6	0	0	0	0	515	474	0	496	39	4	
7	0	0	0	0	501	471	0	502	39	4	
8	0	0	0	0	499	462	0	517	39	4	
9	0	0	0	0	497	453	0	522	39	4	
10	0	0	0	0	503	453	0	535	39	4	
11	0	0	0	0	510	467	0	539	39	4	
12	0	0	0	0	499	487	0	527	39	4	
13	0	0	0	0	499	494	0	513	39	4	
14	0	0	0	0	504	500	0	504	39	4	
15	0	0	0	0	505	505	0	493	39	4	
0	0	0	0	0	512	511	0	485	39	4	
1	0	0	0	0	503	521	0	496	39	4	
2	0	0	0	0	494	523	0	515	39	4	
3	0	0	0	0	500	509	0	523	39	4	
4	0	0	0	0	504	501	0	518	39	4	
5	0	0	0	0	512	494	0	508	39	4	
6	0	0	0	0	515	489	0	504	39	4	
7	0	0	0	0	513	482	0	502	39	4	
8	0	0	0	0	498	479	0	518	39	4	
9	0	0	0	0	503	480	0	519	39	4	
10	0	0	0	0	503	483	0	508	39	4	
11	0	0	0	0	497	490	0	512	39	4	
12	0	0	0	0	496	491	0	509	39	4	
13	0	0	0	0	497	491	0	507	39	4	
14	0	0	0	0	501	495	0	500	39	4	
15	0	0	0	0	505	496	0	493	39	4	
0	0	0	0	0	505	501	0	496	39	4	
1	0	0	0	0	508	502	0	486	39	4	
2	0	0	0	0	502	504	0	493	39	4	
3	0	0	0	0	501	499	0	512	39	4	
4	0	0	0	0	507	488	0	542	39	4	
5	0	0	0	0	501	472	0	522	39	4	
6	0	0	0	0	499	471	0	515	39	4	
7	0	0	0	0	504	483	0	507	39	4	
8	0	0	0	0	509	491	0	502	39	4	
9	0	0	0	0	501	495	0	512	39	4	
10	0	0	0	0	503	498	0	534	39	4	
11	0	0	0	0	508	498	0	531	39	4	
12	0	0	0	0	502	492	0	524	39	4	
13	0	0	0	0	510	486	0	517	39	4	
14	0	0	0	0	499	478	0	505	39	4	
15	0	0	0	0	499	476	0	512	39	4	
0	0	0	0	0	499	476	0	524	39	4	
1	0	0	0	0	498	472	0	524	39	4	
2	0	0	0	0	499	466	0	512	39	4	
3	0	0	0	0	513	466	0	503	39	4	
4	0	0	0	0	511	465	0	504	39	4	
5	0	0	0	0	496	464	0	497	39	4	
6	0	0	0	0	492	473	0	498	39	4	
7	0	0	0	0	505	481	0	494	39	4	
8	0	0	0	0	513	492	0	490	39	4	
9	0	0	0	0	502	505	0	503	39	4	
10	0	0	0	0	502	511	0	527	39	4	
11	0	0	0	0	502	513	0	535	39	4	
12	0	0	0	0	505	518	0	530	39	4	
13	0	0	0	0	503	523	0	519	39	4	
14	0	0	0	0	499	528	0	524	39	4	
15	0	0	0	0	508	528	0	528	39	4	
0	0	0	0	0	493	521	0	547	39	4	
1	0	0	0	0	500	513	0	551	39	4	
2	0	0	0	0	497	507	0	570	39	4	
3	0	0	0	0	508	505	0	566	39	4	
4	0	0	0	0	506	500	0	555	39	4	
5	0	0	0	0	503	493	0	538	39	4	
6	0	0	0	0	505	489	0	523	39	4	
7	0	0	0	0	507	485	0	509	39	4	
8	0	0	0	0	508	492	0	514	39	4	
9	0	0	0	0	492	499	0	522	39	4	
10	0	0	0	0	499	499	0	522	39	4	
11	0	0	0	0	504	500	0	514	39	4	
12	0	0	0	0	506	504	0	503	39	4	
13	0	0	0	0	508	510	0	503	39	4	
14	0	0	0	0	507	503	0	492	39	4	
15	0	0	0	0	495	503	0	494	39	4	
0	0	0	0	0	501	499	0	491	39	4	
1	0	0	0	0	504	499	0	512	39	4	
2	0	0	0	0	508	505	0	529	39	4	
3	0	0	0	0	508	507	0	529	39	4	
4	0	0	0	0	504	505	0	523	39	4	
5	0	0	0	0	504	496	0	516	39	4	
6	0	0	0	0	504	486	0	505	39	4	
7	0	0	0	0	501	484	0	512	39	4	
8	0	0	0	0	496	484	0	526	39	4	
9	0	0	0	0	502	483	0	527	39	4	
10	0	0	0	0	501	479	0	539	39	4	
11	0	0	0	0	511	476	0	540	39	4	
12	0	0	0	0	505	480	0	546	39	4	
13	0	0	0	0	496	482	0	558	39	4	
14	0	0	0	0	507	487	0	552	39	4	
15	0	0	0	0	507	492	0	558	39	4	
0	0	0	0	0	504	489	0	558	39	4	
1	0	0	0	0	504	489	0	556	39	4	
2	0	0	0	0	501	497	0	564	39	4	
3	0	0	0	0	505	506	0	559	39	4	
4	0	0	0	0	502	511	0	540	39	4	
5	0	0	0	0	507	508	0	521	39	4	
6	0	0	0	0	506	505	0	510	39	4	
7	0	0	0	0	502	495	0	495	39	4	
8	0	0	0	0	506	488	0	491	39	4	
9	0	0	0	0	504	487	0	483	39	4	
10	0	0	0	0	511	490	0	479	39	4	
11	0	0	0	0	498	495	0	485	39	4	
12	0	0	0	0	500	498	0	480	39	4	
13	0	0	0	0	506	497	0	483	39	4	
14	0	0	0	0	500	498	0	481	39	4	
15	0	0	0	0	508	505	0	479	39	4	
0	0	0	0	0	497	519	0	479	39	4	
1	0	0	0	0	502	524	0	472	39	4	
2	0	0	0	0	498	524	0	476	39	4	
3	0	0	0	0	498	518	0	475	39	4	
4	0	0	0	0	504	504	0	474	39	4	
5	0	0	0	0	512	496	0	481	39	4	
6	0	0	0	0	502	493	0	481	39	4	
7	0	0	0	0	502	494	0	484	39	4	
8	0	0	0	0	508	488	0	479	39	4	
9	0	0	0	0	510	491	0	475	39	4	
10	0	0	0	0	503	494	0	497	39	4	
11	0	0	0	0	504	499	0	518	39	4	
12	0	0	0	0	494	510	0	527	39	4	
13	0	0	0	0	502	518	0	518	39	4	
14	0	0	0	0	496	512	0	505	39	4	
15	0	0	0	0	504	502	0	500	39	4	
0	0	0	0	0	506	498	0	491	39	4	
1	0	0	0	0	502	503	0	487	39	4	
2	0	0	0	0	496	505	0	480	39	4	
3	0	0	0	0	508	507	0	478	39	4	
4	0	0	0	0	500	514	0	482	39	4	
5	0	0	0	0	502	522	0	480	39	4	
6	0	0	0	0	499	532	0	485	39	4	
7	0	0	0	0	511	534	0	484	39	4	
8	0	0	0	0	508	528	0	481	39	4	
9	0	0	0	0	502	518	0	483	39	4	
10	0	0	0	0	497	508	0	481	39	4	
11	0	0	0	0	500	499	0	486	39	4	
12	0	0	0	0	497	491	0	483	39	4	
13	0	0	0	0	505	483	0	482	39	4	
14	0	0	0	0	508	484	0	486	39	4	
15	0	0	0	0	503	488	0	483	39	4	
0	0	0	0	0	500	503	0	483	39	4	
1	0	0	0	0	508	515	0	479	39	4	
2	0	0	0	0	503	520	0	489	39	4	
3	0	0	0	0	502	525	0	483	39	4	
4	0	0	0	0	510	518	0	483	39	4	
5	0	0	0	0	508	515	0	492	39	4	
6	0	0	0	0	501	512	0	514	39	4	
7	0	0	0	0	500	504	0	524	39	4	
8	0	0	0	0	503	491	0	520	39	4	
9	0	0	0	0	505	480	0	507	39	4	
10	0	0	0	0	497	478	0	502	39	4	
11	0	0	0	0	504	472	0	494	39	4	
12	0	0	0	0	508	480	0	488	39	4	
13	0	0	0	0	502	489	0	496	39	4	
14	0	0	0	0	502	496	0	487	39	4	
15	0	0	0	0	507	495	0	492	39	4	
0	0	0	0	0	501	496	0	485	39	4	
1	0	0	0	0	513	508	0	479	39	4	
2	0	0	0	0	506	524	0	483	39	4	
3	0	0	0	0	496	527	0	483	39	4	
4	0	0	0	0	495	531	0	487	39	4	
5	0	0	0	0	504	533	0	486	39	4	
6	0	0	0	0	507	535	0	485	39	4	
7	0	0	0	0	504	536	0	487	39	4	
8	0	0	0	0	504	533	0	481	39	4	
9	0	0	0	0	503	530	0	477	39	4	
10	0	0	0	0	506	531	0	476	39	4	
11	0	0	0	0	507	532	0	475	39	4	
12	0	0	0	0	499	534	0	484	39	4	
13	0	0	0	0	502	527	0	482	39	4	
14	0	0	0	0	496	522	0	487	39	4	
15	0	0	0	0	494	527	0	485	39	4	
0	0	0	0	0	512	528	0	483	39	4	
1	0	0	0	0	503	530	0	483	39	4	
2	0	0	0	0	501	527	0	482	39	4	
3	0	0	0	0	498	524	0	486	39	4	
4	0	0	0	0	508	518	0	488	39	4	
5	0	0	0	0	506	511	0	509	39	4	
6	0	0	0	0	502	506	0	532	39	4	
7	0	0	0	0	502	503	0	531	39	4	
8	0	0	0	0	504	503	0	523	39	4	
9	0	0	0	0	503	503	0	507	39	4	
10	0	0	0	0	512	498	0	496	39	4	
11	0	0	0	0	502	497	0	496	39	4	
12	0	0	0	0	501	503	0	491	39	4	
13	0	0	0	0	502	511	0	495	39	4	
14	0	0	0	0	502	519	0	492	39	4	
15	0	0	0	0	505	516	0	490	39	4	
0	0	0	0	0	502	513	0	491	39	4	
1	0	0	0	0	496	506	0	483	39	4	
2	0	0	0	0	492	497	0	487	39	4	
3	0	0	0	0	501	496	0	485	39	4	
4	0	0	0	0	506	497	0	496	39	4	
5	0	0	0	0	502	504	0	490	39	4	
6	0	0	0	0	498	504	0	489	39	4	
7	0	0	0	0	500	505	0	494	39	4	
8	0	0	0	0	505	510	0	488	39	4	
9	0	0	0	0	514	520	0	480	39	4	
10	0	0	0	0	507	534	0	486	39	4	
11	0	0	0	0	503	530	0	487	39	4	
12	0	0	0	0	503	524	0	490	39	4	
13	0	0	0	0	507	522	0	486	39	4	
14	0	0	0	0	507	522	0	481	39	4	
15	0	0	0	0	502	521	0	496	39	4	
0	0	0	0	0	504	516	0	515	39	4	
1	0	0	0	0	500	510	0	525	39	4	
2	0	0	0	0	504	499	0	522	39	4	
3	0	0	0	0	504	493	0	517	39	4	
4	0	0	0	0	497	497	0	515	39	4	
5	0	0	0	0	508	496	0	515	39	4	
6	0	0	0	0	508	491	0	540	39	4	
7	0	0	0	0	496	489	0	551	39	4	
8	0	0	0	0	499	489	0	564	39	4	
9	0	0	0	0	508	491	0	571	39	4	
10	0	0	0	0	504	492	0	571	39	4	
11	0	0	0	0	503	489	0	582	39	4	
12	0	0	0	0	508	491	0	575	39	4	
13	0	0	0	0	509	497	0	576	39	4	
14	0	0	0	0	504	503	0	582	39	4	
15	0	0	0	0	508	504	0	576	39	4	
0	0	0	0	0	500	501	0	584	39	4	
1	0	0	0	0	508	503	0	576	39	4	
2	0	0	0	0	498	508	0	576	39	4	
3	0	0	0	0	506	509	0	575	39	4	
4	0	0	0	0	509	508	0	569	39	4	
5	0	0	0	0	494	512	0	575	39	4	
6	0	0	0	0	504	518	0	570	39	4	
7	0	0	0	0	507	513	0	572	39	4	
8	0	0	0	0	506	513	0	571	39	4	
9	0	0	0	0	507	515	0	564	39	4	
10	0	0	0	0	499	506	0	572	39	4	
11	0	0	0	0	507	496	0	567	39	4	
12	0	0	0	0	499	492	0	567	39	4	
13	0	0	0	0	507	488	0	565	39	4	
14	0	0	0	0	506	488	0	557	39	4	
15	0	0	0	0	501	492	0	561	39	4	
0	0	0	0	0	507	488	0	549	39	4	
1	0	0	0	0	500	486	0	547	39	4	
2	0	0	0	0	501	491	0	555	39	4	
3	0	0	0	0	502	493	0	550	38	4	
4	0	0	0	0	507	489	0	561	39	4	
5	0	0	0	0	499	484	0	558	39	4	
6	0	0	0	0	505	481	0	560	38	4	
7	0	0	0	0	499	477	0	558	39	4	
8	0	0	0	0	504	474	0	549	39	4	
9	0	0	0	0	507	476	0	570	38	4	
10	0	0	0	0	499	492	0	555	38	4	
11	0	0	0	0	508	509	0	557	39	4	
12	0	0	0	0	506	510	0	555	39	4	
13	0	0	0	0	505	513	0	547	38	4	
14	0	0	0	0	499	525	0	555	39	4	
15	0	0	0	0	504	536	0	549	39	4	
0	0	0	0	0	505	535	0	550	38	4	
1	0	0	0	0	501	530	0	554	38	4	
2	0	0	0	0	512	518	0	550	39	4	
3	0	0	0	0	494	508	0	559	39	4	
4	0	0	0	0	503	504	0	551	39	4	
5	0	0	0	0	500	510	0	553	39	4	
6	0	0	0	0	500	521	0	557	39	4	
7	0	0	0	0	502	524	0	549	39	4	
8	0	0	0	0	499	519	0	558	39	4	
9	0	0	0	0	510	504	0	552	39	4	
10	0	0	0	0	503	489	0	534	39	4	
11	0	0	0	0	506	491	0	520	39	4	
12	0	0	0	0	495	500	0	502	39	4	
13	0	0	0	0	500	504	0	496	38	4	
14	0	0	0	0	500	498	0	489	39	4	
15	0	0	0	0	506	486	0	482	39	4	
0	0	0	0	0	503	485	0	484	39	4	
1	0	0	0	0	504	495	0	485	39	4	
2	0	0	0	0	502	508	0	508	39	4	
3	0	0	0	0	509	515	0	516	39	4	
4	0	0	0	0	506	521	0	531	39	4	
5	0	0	0	0	504	527	0	552	39	4	
6	0	0	0	0	512	523	0	541	39	4	
7	0	0	0	0	494	513	0	552	39	4	
8	0	0	0	0	501	510	0	547	39	4	
9	0	0	0	0	506	507	0	531	39	4	
10	0	0	0	0	499	508	0	526	39	4	
11	0	0	0	0	500	509	0	519	39	4	
12	0	0	0	0	498	510	0	513	39	4	
13	0	0	0	0	503	514	0	502	39	4	
14	0	0	0	0	504	519	0	494	39	4	
15	0	0	0	0	500	538	0	494	39	4	
0	0	0	0	0	500	551	0	484	39	4	
1	0	0	0	0	504	560	0	492	39	4	
2	0	0	0	0	508	564	0	509	39	4	
3	0	0	0	0	510	568	0	525	39	4	
4	0	0	0	0	501	571	0	524	39	4	
5	0	0	0	0	501	569	0	512	39	4	
6	0	0	0	0	508	577	0	507	39	4	
7	0	0	0	0	503	591	0	498	39	4	
8	0	0	0	0	503	601	0	508	39	4	
9	0	0	0	0	508	609	0	520	39	4	
10	0	0	0	0	500	615	0	518	39	4	
11	0	0	0	0	504	620	0	511	39	4	
12	0	0	0	0	502	625	0	502	39	4	
13	0	0	0	0	503	624	0	496	39	4	
14	0	0	0	0	494	624	0	493	39	4	
15	0	0	0	0	498	626	0	483	39	4	
0	0	0	0	0	502	630	0	487	39	4	
1	0	0	0	0	501	624	0	501	38	4	
2	0	0	0	0	504	605	0	512	38	4	
3	0	0	0	0	502	590	0	513	39	4	
4	0	0	0	0	499	573	0	503	39	4	
5	0	0	0	0	499	556	0	499	38	4	
6	0	0	0	0	510	538	0	488	39	4	
7	0	0	0	0	512	526	0	479	39	4	
8	0	0	0	0	508	519	0	487	38	4	
9	0	0	0	0	504	507	0	504	39	4	
10	0	0	0	0	504	499	0	510	39	4	
11	0	0	0	0	503	495	0	499	38	4	
12	0	0	0	0	505	493	0	489	39	4	
13	0	0	0	0	497	491	0	496	39	4	
14	0	0	0	0	500	487	0	502	38	4	
15	0	0	0	0	505	468	0	499	38	4	
0	0	0	0	0	499	443	0	513	39	4	
1	0	0	0	0	499	423	0	524	38	4	
2	0	0	0	0	502	407	0	520	38	4	
3	0	0	0	0	505	384	0	508	39	4	
4	0	0	0	0	502	359	0	503	39	4	
5	0	0	0	0	508	340	0	493	38	4	
6	0	0	0	0	514	325	0	485	39	4	
7	0	0	0	0	500	319	0	487	39	4	
8	0	0	0	0	498	320	0	480	39	4	
9	0	0	0	0	500	331	0	486	39	4	
10	0	0	0	0	499	341	0	504	39	4	
11	0	0	0	0	502	345	0	520	38	4	
12	0	0	0	0	504	338	0	518	39	4	
13	0	0	0	0	502	320	0	510	39	4	
14	0	0	0	0	502	312	0	505	39	4	
15	0	0	0	0	501	317	0	497	39	4	
0	0	0	0	0	504	322	0	507	39	4	
1	0	0	0	0	505	329	0	520	39	4	
2	0	0	0	0	508	348	0	516	39	4	
3	0	0	0	0	501	363	0	512	39	4	
4	0	0	0	0	502	370	0	504	39	4	
5	0	0	0	0	512	373	0	496	39	4	
6	0	0	0	0	502	389	0	499	39	4	
7	0	0	0	0	499	402	0	489	39	4	
8	0	0	0	0	502	415	0	496	39	4	
9	0	0	0	0	501	422	0	511	39	4	
10	0	0	0	0	496	428	0	529	39	4	
11	0	0	0	0	503	441	0	519	39	4	
12	0	0	0	0	506	448	0	519	39	4	
13	0	0	0	0	505	459	0	524	39	4	
14	0	0	0	0	511	467	0	514	39	4	
15	0	0	0	0	502	468	0	519	39	4	
0	0	0	0	0	505	467	0	528	39	4	
1	0	0	0	0	499	463	0	524	39	4	
2	0	0	0	0	496	465	0	514	39	4	
3	0	0	0	0	510	475	0	510	39	4	
4	0	0	0	0	508	488	0	496	39	4	
5	0	0	0	0	498	504	0	494	39	4	
6	0	0	0	0	503	519	0	487	39	4	
7	0	0	0	0	503	529	0	489	39	4	
8	0	0	0	0	496	530	0	485	39	4	
9	0	0	0	0	503	531	0	499	39	4	
10	0	0	0	0	504	534	0	522	39	4	
11	0	0	0	0	502	534	0	523	39	4	
12	0	0	0	0	497	537	0	516	39	4	
13	0	0	0	0	506	542	0	507	39	4	
14	0	0	0	0	510	544	0	497	39	4	
15	0	0	0	0	501	549	0	504	39	4	
0	0	0	0	0	501	552	0	515	39	4	
1	0	0	0	0	507	554	0	517	39	4	
2	0	0	0	0	505	556	0	528	39	4	
3	0	0	0	0	511	560	0	531	39	4	
4	0	0	0	0	502	567	0	524	39	4	
5	0	0	0	0	496	575	0	511	39	4	
6	0	0	0	0	500	576	0	504	39	4	
7	0	0	0	0	505	573	0	497	39	4	
8	0	0	0	0	508	570	0	506	39	4	
9	0	0	0	0	501	575	0	521	39	4	
10	0	0	0	0	502	577	0	518	39	4	
11	0	0	0	0	509	575	0	518	38	4	
12	0	0	0	0	504	577	0	516	39	4	
13	0	0	0	0	503	580	0	507	39	4	
14	0	0	0	0	504	583	0	504	39	4	
15	0	0	0	0	498	582	0	494	39	4	
0	0	0	0	0	495	576	0	492	39	4	
1	0	0	0	0	497	574	0	487	39	4	
2	0	0	0	0	502	577	0	499	39	4	
3	0	0	0	0	503	585	0	517	39	4	
4	0	0	0	0	496	593	0	516	39	4	
5	0	0	0	0	499	593	0	511	39	4	
6	0	0	0	0	505	588	0	504	39	4	
7	0	0	0	0	502	583	0	494	39	4	
8	0	0	0	0	511	572	0	495	39	4	
9	0	0	0	0	511	560	0	492	39	4	
10	0	0	0	0	491	551	0	512	39	4	
11	0	0	0	0	506	543	0	516	39	4	
12	0	0	0	0	513	538	0	511	39	4	
13	0	0	0	0	502	540	0	509	39	4	
14	0	0	0	0	500	543	0	500	39	4	
15	0	0	0	0	504	543	0	502	39	4	
0	0	0	0	0	500	545	0	514	39	4	
1	0	0	0	0	507	545	0	523	38	4	
2	0	0	0	0	513	545	0	520	39	4	
3	0	0	0	0	506	540	0	512	39	4	
4	0	0	0	0	498	544	0	507	39	4	
5	0	0	0	0	501	549	0	499	39	4	
6	0	0	0	0	506	558	0	492	39	4	
7	0	0	0	0	509	576	0	506	39	4	
8	0	0	0	0	507	583	0	492	38	4	
9	0	0	0	0	498	584	0	509	39	4	
10	0	0	0	0	510	575	0	514	39	4	
11	0	0	0	0	499	559	0	507	39	4	
12	0	0	0	0	497	545	0	510	38	4	
13	0	0	0	0	504	531	0	507	39	4	
14	0	0	0	0	496	522	0	503	39	4	
15	0	0	0	0	499	526	0	496	39	4	
0	0	0	0	0	509	529	0	489	39	4	
1	0	0	0	0	512	528	0	500	39	4	
2	0	0	0	0	496	525	0	520	39	4	
3	0	0	0	0	504	526	0	521	38	4	
4	0	0	0	0	503	529	0	520	39	4	
5	0	0	0	0	508	532	0	504	39	4	
6	0	0	0	0	503	544	0	501	39	4	
7	0	0	0	0	498	548	0	490	38	4	
8	0	0	0	0	502	552	0	488	39	4	
9	0	0	0	0	508	551	0	482	39	4	
10	0	0	0	0	499	559	0	496	39	4	
11	0	0	0	0	500	569	0	519	39	4	
12	0	0	0	0	507	576	0	518	39	4	
13	0	0	0	0	503	581	0	515	38	4	
14	0	0	0	0	495	580	0	527	38	4	
15	0	0	0	0	507	578	0	528	39	4	
0	0	0	0	0	504	576	0	519	39	4	
1	0	0	0	0	507	574	0	506	38	4	
2	0	0	0	0	497	571	0	499	39	4	
3	0	0	0	0	503	575	0	492	39	4	
4	0	0	0	0	511	577	0	484	38	4	
5	0	0	0	0	504	575	0	484	39	4	
6	0	0	0	0	504	573	0	479	39	4	
7	0	0	0	0	501	570	0	482	39	4	
8	0	0	0	0	506	566	0	481	39	4	
9	0	0	0	0	505	563	0	498	39	4	
10	0	0	0	0	502	563	0	522	39	4	
11	0	0	0	0	500	563	0	523	39	4	
12	0	0	0	0	497	560	0	519	39	4	
13	0	0	0	0	503	559	0	519	39	4	
14	0	0	0	0	504	557	0	512	38	4	
15	0	0	0	0	502	554	0	517	38	4	
0	0	0	0	0	500	553	0	549	39	4	
1	0	0	0	0	512	552	0	531	39	4	
2	0	0	0	0	506	549	0	519	39	4	
3	0	0	0	0	511	544	0	507	39	4	
4	0	0	0	0	505	547	0	503	39	4	
5	0	0	0	0	501	550	0	492	38	4	
6	0	0	0	0	502	556	0	491	38	4	
7	0	0	0	0	508	565	0	485	39	4	
8	0	0	0	0	504	567	0	479	39	4	
9	0	0	0	0	500	569	0	491	39	4	
10	0	0	0	0	492	572	0	512	39	4	
11	0	0	0	0	496	570	0	517	38	4	
12	0	0	0	0	509	569	0	512	39	4	
13	0	0	0	0	506	569	0	500	39	4	
14	0	0	0	0	500	577	0	495	39	4	
15	0	0	0	0	505	583	0	489	39	4	
0	0	0	0	0	499	590	0	501	39	4	
1	0	0	0	0	510	591	0	503	38	4	
2	0	0	0	0	507	592	0	494	39	4	
3	0	0	0	0	502	588	0	489	39	4	
4	0	0	0	0	502	581	0	477	39	4	
5	0	0	0	0	499	572	0	474	39	4	
6	0	0	0	0	511	560	0	468	39	4	
7	0	0	0	0	518	555	0	463	38	4	
8	0	0	0	0	499	559	0	462	39	4	
9	0	0	0	0	500	562	0	453	39	4	
10	0	0	0	0	504	566	0	455	39	4	
11	0	0	0	0	491	565	0	454	38	4	
12	0	0	0	0	501	563	0	457	39	4	
13	0	0	0	0	500	564	0	463	39	4	
14	0	0	0	0	504	562	0	467	39	4	
15	0	0	0	0	505	564	0	462	39	4	
0	0	0	0	0	500	572	0	458	39	4	
1	0	0	0	0	511	582	0	457	39	4	
2	0	0	0	0	503	592	0	463	38	4	
3	0	0	0	0	506	594	0	458	39	4	
4	0	0	0	0	502	592	0	464	39	4	
5	0	0	0	0	501	585	0	466	39	4	
6	0	0	0	0	508	583	0	465	39	4	
7	0	0	0	0	495	585	0	471	39	4	
8	0	0	0	0	499	586	0	462	38	4	
9	0	0	0	0	504	587	0	464	39	4	
10	0	0	0	0	504	587	0	461	39	4	
11	0	0	0	0	504	592	0	464	39	4	
12	0	0	0	0	504	598	0	470	38	4	
13	0	0	0	0	498	591	0	469	39	4	
14	0	0	0	0	504	575	0	473	39	4	
15	0	0	0	0	502	561	0	471	38	4	
0	0	0	0	0	505	554	0	470	38	4	
1	0	0	0	0	503	557	0	484	39	4	
2	0	0	0	0	496	558	0	509	39	4	
3	0	0	0	0	506	560	0	516	38	4	
4	0	0	0	0	502	569	0	507	39	4	
5	0	0	0	0	511	578	0	499	39	4	
6	0	0	0	0	500	588	0	496	39	4	
7	0	0	0	0	497	586	0	487	39	4	
8	0	0	0	0	503	580	0	483	39	4	
9	0	0	0	0	499	593	0	476	38	4	
10	0	0	0	0	505	601	0	471	39	4	
11	0	0	0	0	507	603	0	474	39	4	
12	0	0	0	0	508	604	0	472	39	4	
13	0	0	0	0	502	604	0	476	38	4	
14	0	0	0	0	500	598	0	475	39	4	
15	0	0	0	0	507	594	0	470	39	4	
0	0	0	0	0	500	591	0	470	38	4	
1	0	0	0	0	502	581	0	463	39	4	
2	0	0	0	0	500	572	0	467	39	4	
3	0	0	0	0	503	571	0	468	39	4	
4	0	0	0	0	508	576	0	470	38	4	
5	0	0	0	0	508	584	0	477	39	4	
6	0	0	0	0	505	587	0	475	39	4	
7	0	0	0	0	497	583	0	478	39	4	
8	0	0	0	0	504	583	0	472	39	4	
9	0	0	0	0	511	583	0	469	38	4	
10	0	0	0	0	510	585	0	487	38	4	
11	0	0	0	0	499	584	0	511	39	4	
12	0	0	0	0	504	573	0	523	39	4	
13	0	0	0	0	495	566	0	516	39	4	
14	0	0	0	0	497	563	0	518	39	4	
15	0	0	0	0	499	573	0	499	39	4	
0	0	0	0	0	506	575	0	487	39	4	
1	0	0	0	0	502	566	0	487	39	4	
2	0	0	0	0	492	553	0	479	39	4	
3	0	0	0	0	507	542	0	473	39	4	
4	0	0	0	0	505	540	0	478	39	4	
5	0	0	0	0	498	542	0	475	39	4	
6	0	0	0	0	500	539	0	478	39	4	
7	0	0	0	0	507	531	0	475	39	4	
8	0	0	0	0	513	531	0	476	39	4	
9	0	0	0	0	505	529	0	477	39	4	
10	0	0	0	0	504	524	0	473	39	4	
11	0	0	0	0	504	519	0	479	39	4	
12	0	0	0	0	501	512	0	478	39	4	
13	0	0	0	0	503	504	0	478	39	4	
14	0	0	0	0	497	508	0	482	39	4	
15	0	0	0	0	503	505	0	479	39	4	
0	0	0	0	0	497	503	0	479	39	4	
1	0	0	0	0	500	503	0	475	39	4	
2	0	0	0	0	514	504	0	475	39	4	
3	0	0	0	0	504	504	0	482	39	4	
4	0	0	0	0	505	494	0	482	39	4	
5	0	0	0	0	503	487	0	485	39	4	
6	0	0	0	0	509	486	0	488	39	4	
7	0	0	0	0	501	480	0	507	39	4	
8	0	0	0	0	504	476	0	526	39	4	
9	0	0	0	0	503	470	0	530	39	4	
10	0	0	0	0	494	465	0	548	39	4	
11	0	0	0	0	508	459	0	557	39	4	
12	0	0	0	0	512	455	0	565	39	4	
13	0	0	0	0	504	453	0	569	39	4	
14	0	0	0	0	496	448	0	565	39	4	
15	0	0	0	0	502	444	0	572	39	4	
0	0	0	0	0	505	440	0	563	39	4	
1	0	0	0	0	498	439	0	562	39	4	
2	0	0	0	0	502	441	0	570	39	4	
3	0	0	0	0	503	443	0	567	39	4	
4	0	0	0	0	503	439	0	575	39	4	
5	0	0	0	0	510	434	0	573	39	4	
6	0	0	0	0	498	431	0	572	39	4	
7	0	0	0	0	501	432	0	577	39	4	
8	0	0	0	0	505	436	0	570	39	4	
9	0	0	0	0	505	442	0	578	39	4	
10	0	0	0	0	510	440	0	568	39	4	
11	0	0	0	0	505	433	0	570	39	4	
12	0	0	0	0	504	430	0	572	39	4	
13	0	0	0	0	508	430	0	566	39	4	
14	0	0	0	0	503	430	0	575	39	4	
15	0	0	0	0	505	430	0	572	39	4	
0	0	0	0	0	506	430	0	574	39	4	
1	0	0	0	0	505	426	0	573	39	4	
2	0	0	0	0	499	416	0	566	39	4	
3	0	0	0	0	493	412	0	571	39	4	
4	0	0	0	0	506	418	0	563	39	4	
5	0	0	0	0	507	423	0	558	39	4	
6	0	0	0	0	502	426	0	554	39	4	
7	0	0	0	0	502	433	0	569	39	4	
8	0	0	0	0	499	442	0	555	39	4	
9	0	0	0	0	504	448	0	539	39	4	
10	0	0	0	0	506	448	0	521	39	4	
11	0	0	0	0	504	440	0	513	39	4	
12	0	0	0	0	501	437	0	501	39	4	
13	0	0	0	0	501	435	0	497	39	4	
14	0	0	0	0	502	434	0	489	39	4	
15	0	0	0	0	507	432	0	484	39	4	
0	0	0	0	0	516	429	0	490	39	4	
1	0	0	0	0	502	430	0	491	39	4	
2	0	0	0	0	496	424	0	517	39	4	
3	0	0	0	0	509	423	0	524	39	4	
4	0	0	0	0	509	420	0	522	39	4	
5	0	0	0	0	498	414	0	517	39	4	
6	0	0	0	0	496	421	0	510	39	4	
7	0	0	0	0	497	440	0	507	39	4	
8	0	0	0	0	504	451	0	518	39	4	
9	0	0	0	0	506	445	0	525	39	4	
10	0	0	0	0	506	439	0	524	39	4	
11	0	0	0	0	512	431	0	523	39	4	
12	0	0	0	0	504	426	0	527	39	4	
13	0	0	0	0	500	419	0	530	39	4	
14	0	0	0	0	506	423	0	505	39	4	
15	0	0	0	0	509	443	0	501	39	4	
0	0	0	0	0	500	455	0	491	39	4	
1	0	0	0	0	497	462	0	496	39	4	
2	0	0	0	0	505	460	0	511	39	4	
3	0	0	0	0	511	458	0	523	39	4	
4	0	0	0	0	500	449	0	519	39	4	
5	0	0	0	0	503	441	0	511	39	4	
6	0	0	0	0	498	426	0	504	39	4	
7	0	0	0	0	499	424	0	496	39	4	
8	0	0	0	0	508	440	0	490	39	4	
9	0	0	0	0	508	456	0	501	39	4	
10	0	0	0	0	497	464	0	521	39	4	
11	0	0	0	0	514	463	0	526	39	4	
12	0	0	0	0	498	460	0	519	39	4	
13	0	0	0	0	509	453	0	508	39	4	
14	0	0	0	0	501	449	0	504	39	4	
15	0	0	0	0	508	447	0	499	39	4	
0	0	0	0	0	509	444	0	515	39	4	
1	0	0	0	0	510	442	0	518	39	4	
2	0	0	0	0	511	443	0	509	39	4	
3	0	0	0	0	503	451	0	505	39	4	
4	0	0	0	0	497	456	0	496	39	4	
5	0	0	0	0	500	457	0	511	39	4	
6	0	0	0	0	504	456	0	487	39	4	
7	0	0	0	0	511	452	0	482	39	4	
8	0	0	0	0	499	455	0	495	39	4	
9	0	0	0	0	493	459	0	512	39	4	
10	0	0	0	0	499	459	0	516	39	4	
11	0	0	0	0	506	456	0	512	39	4	
12	0	0	0	0	508	450	0	520	39	4	
13	0	0	0	0	506	442	0	516	39	4	
14	0	0	0	0	500	435	0	507	39	4	
15	0	0	0	0	504	432	0	504	39	4	
0	0	0	0	0	506	431	0	495	39	4	
1	0	0	0	0	510	436	0	489	39	4	
2	0	0	0	0	496	444	0	503	39	4	
3	0	0	0	0	492	451	0	524	39	4	
4	0	0	0	0	507	456	0	531	39	4	
5	0	0	0	0	504	455	0	526	39	4	
6	0	0	0	0	507	455	0	515	39	4	
7	0	0	0	0	503	454	0	511	39	4	
8	0	0	0	0	504	447	0	510	39	4	
9	0	0	0	0	499	447	0	526	39	4	
10	0	0	0	0	504	452	0	527	39	4	
11	0	0	0	0	500	460	0	521	39	4	
12	0	0	0	0	503	469	0	516	39	4	
13	0	0	0	0	502	472	0	507	39	4	
14	0	0	0	0	508	469	0	504	39	4	
15	0	0	0	0	503	459	0	499	39	4	
0	0	0	0	0	500	449	0	499	39	4	
1	0	0	0	0	502	445	0	506	39	4	
2	0	0	0	0	498	449	0	526	39	4	
3	0	0	0	0	507	457	0	529	39	4	
4	0	0	0	0	507	468	0	524	39	4	
5	0	0	0	0	512	479	0	513	39	4	
6	0	0	0	0	499	490	0	509	39	4	
7	0	0	0	0	504	492	0	504	39	4	
8	0	0	0	0	508	492	0	520	39	4	
9	0	0	0	0	505	486	0	525	39	4	
10	0	0	0	0	499	472	0	517	39	4	
11	0	0	0	0	494	461	0	517	39	4	
12	0	0	0	0	504	459	0	513	39	4	
13	0	0	0	0	499	446	0	508	39	4	
14	0	0	0	0	494	433	0	502	39	4	
15	0	0	0	0	504	436	0	493	39	4	
0	0	0	0	0	503	453	0	495	39	4	
1	0	0	0	0	503	468	0	487	39	4	
2	0	0	0	0	505	479	0	490	39	4	
3	0	0	0	0	512	477	0	508	39	4	
4	0	0	0	0	508	476	0	519	39	4	
5	0	0	0	0	504	476	0	519	39	4	
6	0	0	0	0	501	472	0	508	39	4	
7	0	0	0	0	501	464	0	504	39	4	
8	0	0	0	0	504	466	0	496	39	4	
9	0	0	0	0	501	474	0	507	39	4	
10	0	0	0	0	497	481	0	527	39	4	
11	0	0	0	0	505	481	0	524	39	4	
12	0	0	0	0	497	477	0	515	39	4	
13	0	0	0	0	507	483	0	503	39	4	
14	0	0	0	0	508	491	0	493	39	4	
15	0	0	0	0	507	494	0	500	39	4	
0	0	0	0	0	499	483	0	511	39	4	
1	0	0	0	0	500	474	0	511	39	4	
2	0	0	0	0	504	472	0	499	39	4	
3	0	0	0	0	505	472	0	486	39	4	
4	0	0	0	0	502	478	0	485	39	4	
5	0	0	0	0	504	483	0	478	39	4	
6	0	0	0	0	496	491	0	478	39	4	
7	0	0	0	0	511	495	0	475	39	4	
8	0	0	0	0	507	494	0	473	39	4	
9	0	0	0	0	506	490	0	485	39	4	
10	0	0	0	0	497	491	0	507	39	4	
11	0	0	0	0	496	493	0	515	39	4	
12	0	0	0	0	503	497	0	511	39	4	
13	0	0	0	0	508	496	0	518	39	4	
14	0	0	0	0	502	482	0	526	39	4	
15	0	0	0	0	507	468	0	505	39	4	
0	0	0	0	0	502	463	0	521	39	4	
1	0	0	0	0	506	461	0	521	39	4	
2	0	0	0	0	505	459	0	511	39	4	
3	0	0	0	0	500	464	0	504	39	4	
4	0	0	0	0	503	475	0	492	39	4	
5	0	0	0	0	500	481	0	489	39	4	
6	0	0	0	0	499	483	0	482	39	4	
7	0	0	0	0	499	492	0	474	39	4	
8	0	0	0	0	509	501	0	485	39	4	
9	0	0	0	0	504	499	0	501	39	4	
10	0	0	0	0	497	499	0	508	39	4	
11	0	0	0	0	499	504	0	502	39	4	
12	0	0	0	0	509	503	0	492	39	4	
13	0	0	0	0	502	503	0	492	39	4	
14	0	0	0	0	497	502	0	481	39	4	
15	0	0	0	0	503	497	0	483	39	4	
0	0	0	0	0	505	490	0	480	39	4	
1	0	0	0	0	504	494	0	495	39	4	
2	0	0	0	0	506	505	0	519	39	4	
3	0	0	0	0	507	506	0	519	39	4	
4	0	0	0	0	499	500	0	513	39	4	
5	0	0	0	0	504	494	0	505	39	4	
6	0	0	0	0	508	489	0	496	39	4	
7	0	0	0	0	503	488	0	505	39	4	
8	0	0	0	0	499	492	0	517	39	4	
9	0	0	0	0	496	487	0	515	39	4	
10	0	0	0	0	507	478	0	506	39	4	
11	0	0	0	0	507	476	0	512	39	4	
12	0	0	0	0	507	486	0	512	39	4	
13	0	0	0	0	506	488	0	505	39	4	
14	0	0	0	0	503	484	0	502	39	4	
15	0	0	0	0	500	480	0	494	39	4	
0	0	0	0	0	510	475	0	488	39	4	
1	0	0	0	0	503	479	0	492	39	4	
2	0	0	0	0	507	479	0	493	39	4	
3	0	0	0	0	502	476	0	517	39	4	
4	0	0	0	0	504	480	0	535	39	4	
5	0	0	0	0	511	484	0	527	39	4	
6	0	0	0	0	505	489	0	522	39	4	
7	0	0	0	0	503	494	0	509	39	4	
8	0	0	0	0	501	503	0	504	39	4	
9	0	0	0	0	499	511	0	495	39	4	
10	0	0	0	0	498	508	0	505	39	4	
11	0	0	0	0	509	502	0	522	39	4	
12	0	0	0	0	501	499	0	521	39	4	
13	0	0	0	0	504	501	0	522	39	4	
14	0	0	0	0	502	499	0	535	39	4	
15	0	0	0	0	509	507	0	539	39	4	
0	0	0	0	0	502	516	0	529	39	4	
1	0	0	0	0	496	514	0	515	39	4	
2	0	0	0	0	498	507	0	509	39	4	
3	0	0	0	0	504	499	0	498	39	4	
4	0	0	0	0	520	496	0	491	39	4	
5	0	0	0	0	511	496	0	492	39	4	
6	0	0	0	0	502	502	0	487	39	4	
7	0	0	0	0	493	510	0	490	39	4	
8	0	0	0	0	499	506	0	485	39	4	
9	0	0	0	0	503	497	0	477	39	4	
10	0	0	0	0	502	497	0	483	39	4	
11	0	0	0	0	499	496	0	483	39	4	
12	0	0	0	0	494	487	0	489	39	4	
13	0	0	0	0	504	490	0	488	39	4	
14	0	0	0	0	504	492	0	489	39	4	
15	0	0	0	0	503	494	0	492	39	4	
0	0	0	0	0	505	496	0	487	39	4	
1	0	0	0	0	508	498	0	488	39	4	
2	0	0	0	0	511	489	0	488	39	4	
3	0	0	0	0	505	476	0	488	39	4	
4	0	0	0	0	499	468	0	494	39	4	
5	0	0	0	0	504	469	0	494	39	4	
6	0	0	0	0	501	478	0	499	39	4	
7	0	0	0	0	505	487	0	500	39	4	
8	0	0	0	0	499	488	0	500	39	4	
9	0	0	0	0	502	491	0	517	39	4	
10	0	0	0	0	498	498	0	536	39	4	
11	0	0	0	0	509	503	0	547	39	4	
12	0	0	0	0	500	500	0	540	39	4	
13	0	0	0	0	507	497	0	529	39	4	
14	0	0	0	0	500	501	0	536	39	4	
15	0	0	0	0	497	508	0	554	39	4	
0	0	0	0	0	497	518	0	556	39	4	
1	0	0	0	0	498	520	0	570	38	4	
2	0	0	0	0	510	514	0	578	39	4	
3	0	0	0	0	510	501	0	581	39	4	
4	0	0	0	0	496	493	0	588	39	4	
5	0	0	0	0	499	487	0	580	39	4	
6	0	0	0	0	505	485	0	582	39	4	
7	0	0	0	0	506	485	0	574	39	4	
8	0	0	0	0	505	483	0	556	39	4	
9	0	0	0	0	506	480	0	544	39	4	
10	0	0	0	0	508	484	0	540	39	4	
11	0	0	0	0	507	492	0	530	39	4	
12	0	0	0	0	509	497	0	517	39	4	
13	0	0	0	0	503	504	0	515	39	4	
14	0	0	0	0	503	504	0	508	39	4	
15	0	0	0	0	497	504	0	506	39	4	
0	0	0	0	0	508	503	0	504	39	4	
1	0	0	0	0	508	496	0	499	39	4	
2	0	0	0	0	499	493	0	504	39	4	
3	0	0	0	0	500	488	0	500	39	4	
4	0	0	0	0	500	487	0	509	39	4	
5	0	0	0	0	500	493	0	527	39	4	
6	0	0	0	0	503	494	0	556	39	4	
7	0	0	0	0	507	492	0	555	39	4	
8	0	0	0	0	499	496	0	581	39	4	
9	0	0	0	0	504	493	0	558	39	4	
10	0	0	0	0	503	495	0	544	39	4	
11	0	0	0	0	505	500	0	529	39	4	
12	0	0	0	0	505	508	0	521	39	4	
13	0	0	0	0	507	514	0	510	39	4	
14	0	0	0	0	504	519	0	507	39	4	
15	0	0	0	0	502	520	0	503	39	4	
0	0	0	0	0	513	519	0	500	39	4	
1	0	0	0	0	499	520	0	513	39	4	
2	0	0	0	0	496	515	0	535	39	4	
3	0	0	0	0	499	505	0	541	39	4	
4	0	0	0	0	508	501	0	535	39	4	
5	0	0	0	0	506	503	0	524	39	4	
6	0	0	0	0	505	510	0	519	39	4	
7	0	0	0	0	505	512	0	516	39	4	
8	0	0	0	0	501	520	0	531	39	4	
9	0	0	0	0	507	526	0	529	39	4	
10	0	0	0	0	505	525	0	519	39	4	
11	0	0	0	0	506	527	0	512	39	4	
12	0	0	0	0	499	526	0	499	39	4	
13	0	0	0	0	500	524	0	497	39	4	
14	0	0	0	0	504	521	0	490	39	4	
15	0	0	0	0	508	521	0	485	39	4	
0	0	0	0	0	499	521	0	483	39	4	
1	0	0	0	0	505	513	0	476	39	4	
2	0	0	0	0	495	508	0	476	39	4	
3	0	0	0	0	504	504	0	475	39	4	
4	0	0	0	0	507	499	0	475	39	4	
5	0	0	0	0	499	496	0	479	39	4	
6	0	0	0	0	501	491	0	478	39	4	
7	0	0	0	0	497	487	0	480	39	4	
8	0	0	0	0	500	492	0	476	39	4	
9	0	0	0	0	512	496	0	472	39	4	
10	0	0	0	0	502	503	0	476	39	4	
11	0	0	0	0	498	504	0	475	39	4	
12	0	0	0	0	507	499	0	477	39	4	
13	0	0	0	0	507	496	0	478	39	4	
14	0	0	0	0	511	499	0	477	39	4	
15	0	0	0	0	503	510	0	480	39	4	
0	0	0	0	0	499	510	0	472	39	4	
1	0	0	0	0	497	502	0	472	39	4	
2	0	0	0	0	501	492	0	470	39	4	
3	0	0	0	0	509	486	0	472	39	4	
4	0	0	0	0	497	483	0	478	39	4	
5	0	0	0	0	500	482	0	479	39	4	
6	0	0	0	0	504	487	0	486	39	4	
7	0	0	0	0	506	496	0	485	39	4	
8	0	0	0	0	522	498	0	484	39	4	
9	0	0	0	0	506	500	0	485	39	4	
10	0	0	0	0	503	499	0	491	39	4	
11	0	0	0	0	495	495	0	520	39	4	
12	0	0	0	0	505	494	0	529	39	4	
13	0	0	0	0	504	501	0	526	39	4	
14	0	0	0	0	498	509	0	521	39	4	
15	0	0	0	0	496	513	0	510	39	4	
0	0	0	0	0	508	514	0	508	39	4	
1	0	0	0	0	504	519	0	496	39	4	
2	0	0	0	0	512	527	0	506	39	4	
3	0	0	0	0	507	534	0	492	39	4	
4	0	0	0	0	504	535	0	487	39	4	
5	0	0	0	0	497	538	0	492	39	4	
6	0	0	0	0	501	538	0	490	39	4	
7	0	0	0	0	505	543	0	486	39	4	
8	0	0	0	0	504	545	0	484	39	4	
9	0	0	0	0	508	539	0	479	39	4	
10	0	0	0	0	504	541	0	482	39	4	
11	0	0	0	0	502	542	0	481	39	4	
12	0	0	0	0	505	537	0	481	39	4	
13	0	0	0	0	505	533	0	487	39	4	
14	0	0	0	0	500	529	0	485	39	4	
15	0	0	0	0	495	523	0	491	39	4	
0	0	0	0	0	503	508	0	485	39	4	
1	0	0	0	0	504	500	0	481	39	4	
2	0	0	0	0	502	501	0	486	39	4	
3	0	0	0	0	505	497	0	484	39	4	
4	0	0	0	0	505	495	0	491	39	4	
5	0	0	0	0	502	492	0	491	39	4	
6	0	0	0	0	504	492	0	491	39	4	
7	0	0	0	0	505	491	0	507	39	4	
8	0	0	0	0	502	491	0	527	39	4	
9	0	0	0	0	497	490	0	531	39	4	
10	0	0	0	0	500	489	0	523	39	4	
11	0	0	0	0	511	490	0	513	39	4	
12	0	0	0	0	505	493	0	509	39	4	
13	0	0	0	0	509	501	0	500	39	4	
14	0	0	0	0	496	514	0	500	39	4	
15	0	0	0	0	503	521	0	495	39	4	
0	0	0	0	0	508	519	0	490	39	4	
1	0	0	0	0	505	513	0	488	39	4	
2	0	0	0	0	499	507	0	486	39	4	
3	0	0	0	0	503	515	0	490	39	4	
4	0	0	0	0	496	521	0	490	39	4	
5	0	0	0	0	503	528	0	487	39	4	
6	0	0	0	0	505	533	0	492	39	4	
7	0	0	0	0	505	529	0	486	39	4	
8	0	0	0	0	507	527	0	503	39	4	
9	0	0	0	0	509	520	0	483	39	4	
10	0	0	0	0	515	513	0	477	39	4	
11	0	0	0	0	499	519	0	486	39	4	
12	0	0	0	0	500	519	0	485	39	4	
13	0	0	0	0	501	515	0	495	39	4	
14	0	0	0	0	500	509	0	517	39	4	
15	0	0	0	0	511	504	0	531	39	4	
0	0	0	0	0	505	501	0	543	39	4	
1	0	0	0	0	492	500	0	560	39	4	
2	0	0	0	0	502	502	0	560	39	4	
3	0	0	0	0	505	508	0	571	38	4	
4	0	0	0	0	509	518	0	573	39	4	
5	0	0	0	0	504	531	0	572	39	4	
6	0	0	0	0	494	544	0	578	39	4	
7	0	0	0	0	502	549	0	570	39	4	
8	0	0	0	0	502	548	0	574	39	4	
9	0	0	0	0	510	552	0	574	39	4	
10	0	0	0	0	502	548	0	571	39	4	
11	0	0	0	0	502	545	0	578	39	4	
12	0	0	0	0	508	543	0	573	39	4	
13	0	0	0	0	496	531	0	578	39	4	
14	0	0	0	0	504	523	0	573	39	4	
15	0	0	0	0	507	523	0	570	39	4	
0	0	0	0	0	498	520	0	575	39	4	
1	0	0	0	0	504	512	0	568	39	4	
2	0	0	0	0	499	509	0	572	39	4	
3	0	0	0	0	509	512	0	573	39	4	
4	0	0	0	0	501	519	0	557	39	4	
5	0	0	0	0	498	522	0	537	39	4	
6	0	0	0	0	505	522	0	525	39	4	
7	0	0	0	0	505	525	0	508	39	4	
8	0	0	0	0	505	525	0	496	39	4	
9	0	0	0	0	501	521	0	494	39	4	
10	0	0	0	0	498	521	0	488	39	4	
11	0	0	0	0	501	526	0	490	39	4	
12	0	0	0	0	503	520	0	486	39	4	
13	0	0	0	0	508	511	0	484	39	4	
14	0	0	0	0	505	510	0	487	39	4	
15	0	0	0	0	505	510	0	483	39	4	
0	0	0	0	0	508	515	0	484	39	4	
1	0	0	0	0	498	515	0	480	39	4	
2	0	0	0	0	505	518	0	478	39	4	
3	0	0	0	0	505	525	0	485	39	4	
4	0	0	0	0	501	520	0	485	39	4	
5	0	0	0	0	511	510	0	491	39	4	
6	0	0	0	0	501	504	0	491	39	4	
7	0	0	0	0	505	498	0	488	39	4	
8	0	0	0	0	502	500	0	488	39	4	
9	0	0	0	0	500	500	0	482	39	4	
10	0	0	0	0	506	500	0	489	39	4	
11	0	0	0	0	498	500	0	518	38	4	
12	0	0	0	0	510	500	0	541	39	4	
13	0	0	0	0	506	500	0	545	39	4	
14	0	0	0	0	503	502	0	539	39	4	
15	0	0	0	0	504	510	0	533	39	4	
0	0	0	0	0	497	512	0	520	39	4	
1	0	0	0	0	504	514	0	509	39	4	
2	0	0	0	0	503	511	0	507	39	4	
3	0	0	0	0	496	504	0	506	39	4	
4	0	0	0	0	500	501	0	500	39	4	
5	0	0	0	0	503	498	0	506	39	4	
6	0	0	0	0	503	500	0	493	39	4	
7	0	0	0	0	507	510	0	508	39	4	
8	0	0	0	0	503	514	0	488	39	4	
9	0	0	0	0	490	513	0	488	39	4	
10	0	0	0	0	501	508	0	485	39	4	
11	0	0	0	0	509	499	0	484	39	4	
12	0	0	0	0	508	496	0	492	39	4	
13	0	0	0	0	515	491	0	493	39	4	
14	0	0	0	0	493	487	0	499	39	4	
15	0	0	0	0	496	487	0	498	39	4	
0	0	0	0	0	505	494	0	496	39	4	
1	0	0	0	0	502	502	0	499	39	4	
2	0	0	0	0	507	511	0	494	39	4	
3	0	0	0	0	503	522	0	505	39	4	
4	0	0	0	0	504	520	0	528	39	4	
5	0	0	0	0	505	515	0	542	39	4	
6	0	0	0	0	506	519	0	543	39	4	
7	0	0	0	0	502	525	0	533	39	4	
8	0	0	0	0	497	531	0	524	39	4	
9	0	0	0	0	503	532	0	513	39	4	
10	0	0	0	0	506	529	0	527	39	4	
11	0	0	0	0	505	523	0	544	39	4	
12	0	0	0	0	504	515	0	555	39	4	
13	0	0	0	0	504	511	0	575	39	4	
14	0	0	0	0	503	513	0	581	39	4	
15	0	0	0	0	496	514	0	589	39	4	
0	0	0	0	0	499	514	0	590	39	4	
1	0	0	0	0	499	511	0	580	39	4	
2	0	0	0	0	502	511	0	587	39	4	
3	0	0	0	0	496	508	0	580	39	4	
4	0	0	0	0	499	501	0	582	39	4	
5	0	0	0	0	514	500	0	585	39	4	
6	0	0	0	0	514	501	0	578	39	4	
7	0	0	0	0	495	507	0	588	39	4	
8	0	0	0	0	502	508	0	580	39	4	
9	0	0	0	0	493	498	0	582	39	4	
10	0	0	0	0	500	496	0	585	39	4	
11	0	0	0	0	507	490	0	579	39	4	
12	0	0	0	0	500	482	0	585	39	4	
13	0	0	0	0	512	478	0	576	39	4	
14	0	0	0	0	507	476	0	576	39	4	
15	0	0	0	0	492	485	0	583	39	4	
0	0	0	0	0	508	487	0	576	39	4	
1	0	0	0	0	498	489	0	583	39	4	
2	0	0	0	0	505	493	0	572	39	4	
3	0	0	0	0	504	496	0	572	39	4	
4	0	0	0	0	505	502	0	573	39	4	
5	0	0	0	0	506	511	0	566	39	4	
6	0	0	0	0	500	519	0	574	39	4	
7	0	0	0	0	501	514	0	568	39	4	
8	0	0	0	0	503	508	0	569	39	4	
9	0	0	0	0	504	502	0	569	39	4	
10	0	0	0	0	502	500	0	564	39	4	
11	0	0	0	0	503	501	0	572	39	4	
12	0	0	0	0	512	502	0	569	39	4	
13	0	0	0	0	509	500	0	572	39	4	
14	0	0	0	0	507	495	0	573	39	4	
15	0	0	0	0	500	493	0	561	39	4	
0	0	0	0	0	502	496	0	566	39	4	
1	0	0	0	0	501	500	0	556	39	4	
2	0	0	0	0	495	509	0	557	39	4	
3	0	0	0	0	503	515	0	564	39	4	
4	0	0	0	0	509	515	0	560	39	4	
5	0	0	0	0	508	520	0	554	39	4	
6	0	0	0	0	506	524	0	560	39	4	
7	0	0	0	0	504	527	0	557	39	4	
8	0	0	0	0	507	532	0	543	39	4	
9	0	0	0	0	508	536	0	535	39	4	
10	0	0	0	0	502	539	0	546	39	4	
11	0	0	0	0	503	545	0	544	39	4	
12	0	0	0	0	500	552	0	547	39	4	
13	0	0	0	0	500	555	0	555	39	4	
14	0	0	0	0	505	562	0	552	39	4	
15	0	0	0	0	504	565	0	560	39	4	
0	0	0	0	0	510	577	0	554	39	4	
1	0	0	0	0	502	593	0	555	39	4	
2	0	0	0	0	506	608	0	560	39	4	
3	0	0	0	0	508	612	0	556	39	4	
4	0	0	0	0	500	614	0	562	39	4	
5	0	0	0	0	501	609	0	558	39	4	
6	0	0	0	0	502	607	0	557	39	4	
7	0	0	0	0	510	610	0	554	39	4	
8	0	0	0	0	497	612	0	547	39	4	
9	0	0	0	0	499	622	0	551	39	4	
10	0	0	0	0	506	625	0	548	39	4	
11	0	0	0	0	504	621	0	551	39	4	
12	0	0	0	0	500	613	0	552	39	4	
13	0	0	0	0	507	602	0	538	39	4	
14	0	0	0	0	503	595	0	525	39	4	
15	0	0	0	0	499	593	0	507	39	4	
0	0	0	0	0	504	584	0	512	39	4	
1	0	0	0	0	500	581	0	523	39	4	
2	0	0	0	0	508	569	0	519	39	4	
3	0	0	0	0	504	551	0	510	39	4	
4	0	0	0	0	504	529	0	500	39	4	
5	0	0	0	0	501	507	0	491	39	4	
6	0	0	0	0	500	489	0	489	39	4	
7	0	0	0	0	504	468	0	481	39	4	
8	0	0	0	0	507	447	0	481	39	4	
9	0	0	0	0	504	432	0	479	39	4	
10	0	0	0	0	502	415	0	494	39	4	
11	0	0	0	0	505	405	0	528	39	4	
12	0	0	0	0	496	398	0	516	39	4	
13	0	0	0	0	505	394	0	512	39	4	
14	0	0	0	0	499	382	0	522	39	4	
15	0	0	0	0	505	368	0	524	39	4	
0	0	0	0	0	505	356	0	514	39	4	
1	0	0	0	0	497	346	0	503	39	4	
2	0	0	0	0	504	340	0	496	39	4	
3	0	0	0	0	504	332	0	488	39	4	
4	0	0	0	0	509	324	0	482	39	4	
5	0	0	0	0	502	324	0	485	39	4	
6	0	0	0	0	505	328	0	477	39	4	
7	0	0	0	0	498	332	0	479	39	4	
8	0	0	0	0	499	339	0	479	39	4	
9	0	0	0	0	502	344	0	492	39	4	
10	0	0	0	0	503	350	0	518	39	4	
11	0	0	0	0	503	358	0	522	39	4	
12	0	0	0	0	509	368	0	540	39	4	
13	0	0	0	0	509	376	0	546	39	4	
14	0	0	0	0	501	380	0	551	39	4	
15	0	0	0	0	510	386	0	550	39	4	
0	0	0	0	0	507	391	0	537	39	4	
1	0	0	0	0	495	395	0	530	39	4	
2	0	0	0	0	497	396	0	515	39	4	
3	0	0	0	0	506	404	0	500	39	4	
4	0	0	0	0	507	423	0	495	39	4	
5	0	0	0	0	499	435	0	484	39	4	
6	0	0	0	0	499	444	0	484	39	4	
7	0	0	0	0	496	459	0	480	39	4	
8	0	0	0	0	515	472	0	475	39	4	
9	0	0	0	0	498	481	0	480	39	4	
10	0	0	0	0	504	482	0	473	39	4	
11	0	0	0	0	496	482	0	477	39	4	
12	0	0	0	0	505	485	0	476	39	4	
13	0	0	0	0	501	488	0	492	39	4	
14	0	0	0	0	501	500	0	515	39	4	
15	0	0	0	0	507	507	0	521	39	4	
0	0	0	0	0	501	501	0	535	39	4	
1	0	0	0	0	499	504	0	532	39	4	
2	0	0	0	0	504	509	0	518	39	4	
3	0	0	0	0	513	519	0	508	39	4	
4	0	0	0	0	510	527	0	495	39	4	
5	0	0	0	0	499	534	0	492	39	4	
6	0	0	0	0	499	536	0	482	39	4	
7	0	0	0	0	499	536	0	474	39	4	
8	0	0	0	0	504	532	0	486	39	4	
9	0	0	0	0	502	529	0	500	39	4	
10	0	0	0	0	502	535	0	506	39	4	
11	0	0	0	0	505	549	0	498	39	4	
12	0	0	0	0	510	557	0	502	39	4	
13	0	0	0	0	505	557	0	500	39	4	
14	0	0	0	0	505	546	0	487	39	4	
15	0	0	0	0	496	540	0	483	39	4	
0	0	0	0	0	499	538	0	476	39	4	
1	0	0	0	0	505	535	0	469	39	4	
2	0	0	0	0	502	532	0	483	39	4	
3	0	0	0	0	499	530	0	500	39	4	
4	0	0	0	0	503	535	0	511	39	4	
5	0	0	0	0	507	537	0	503	39	4	
6	0	0	0	0	499	544	0	512	39	4	
7	0	0	0	0	510	558	0	522	39	4	
8	0	0	0	0	504	569	0	515	39	4	
9	0	0	0	0	503	575	0	508	39	4	
10	0	0	0	0	497	572	0	498	39	4	
11	0	0	0	0	500	567	0	490	39	4	
12	0	0	0	0	505	565	0	488	39	4	
13	0	0	0	0	505	567	0	478	39	4	
14	0	0	0	0	501	568	0	480	39	4	
15	0	0	0	0	498	568	0	476	39	4	
0	0	0	0	0	506	567	0	476	39	4	
1	0	0	0	0	504	566	0	487	39	4	
2	0	0	0	0	501	563	0	509	39	4	
3	0	0	0	0	500	560	0	516	39	4	
4	0	0	0	0	504	556	0	511	39	4	
5	0	0	0	0	513	552	0	500	39	4	
6	0	0	0	0	499	560	0	498	39	4	
7	0	0	0	0	508	571	0	492	39	4	
8	0	0	0	0	498	590	0	508	39	4	
9	0	0	0	0	499	604	0	509	39	4	
10	0	0	0	0	501	610	0	504	39	4	
11	0	0	0	0	500	616	0	505	39	4	
12	0	0	0	0	512	607	0	506	39	4	
13	0	0	0	0	499	593	0	515	39	4	
14	0	0	0	0	504	584	0	502	39	4	
15	0	0	0	0	510	577	0	491	39	4	
0	0	0	0	0	505	571	0	488	39	4	
1	0	0	0	0	508	558	0	476	39	4	
2	0	0	0	0	504	555	0	475	39	4	
3	0	0	0	0	497	556	0	467	39	4	
4	0	0	0	0	510	558	0	466	39	4	
5	0	0	0	0	499	565	0	480	39	4	
6	0	0	0	0	490	558	0	499	39	4	
7	0	0	0	0	505	545	0	508	39	4	
8	0	0	0	0	500	537	0	516	39	4	
9	0	0	0	0	505	538	0	519	39	4	
10	0	0	0	0	504	542	0	525	39	4	
11	0	0	0	0	497	537	0	536	39	4	
12	0	0	0	0	503	533	0	532	39	4	
13	0	0	0	0	502	542	0	517	39	4	
14	0	0	0	0	504	544	0	518	39	4	
15	0	0	0	0	499	545	0	519	39	4	
0	0	0	0	0	504	541	0	507	39	4	
1	0	0	0	0	499	538	0	497	39	4	
2	0	0	0	0	507	537	0	484	39	4	
3	0	0	0	0	508	536	0	472	39	4	
4	0	0	0	0	504	538	0	470	39	4	
5	0	0	0	0	503	541	0	464	39	4	
6	0	0	0	0	499	550	0	468	39	4	
7	0	0	0	0	500	553	0	464	39	4	
8	0	0	0	0	510	561	0	465	39	4	
9	0	0	0	0	507	577	0	479	39	4	
10	0	0	0	0	498	585	0	499	39	4	
11	0	0	0	0	496	584	0	505	39	4	
12	0	0	0	0	500	577	0	497	39	4	
13	0	0	0	0	505	572	0	501	39	4	
14	0	0	0	0	511	571	0	499	39	4	
15	0	0	0	0	509	566	0	492	39	4	
0	0	0	0	0	499	566	0	509	39	4	
1	0	0	0	0	507	566	0	510	39	4	
2	0	0	0	0	509	558	0	501	39	4	
3	0	0	0	0	503	553	0	499	39	4	
4	0	0	0	0	500	554	0	484	39	4	
5	0	0	0	0	495	564	0	483	39	4	
6	0	0	0	0	504	566	0	473	39	4	
7	0	0	0	0	509	560	0	469	39	4	
8	0	0	0	0	502	554	0	473	39	4	
9	0	0	0	0	506	548	0	473	39	4	
10	0	0	0	0	499	555	0	495	39	4	
11	0	0	0	0	503	563	0	504	39	4	
12	0	0	0	0	507	568	0	500	39	4	
13	0	0	0	0	508	574	0	498	39	4	
14	0	0	0	0	495	575	0	488	39	4	
15	0	0	0	0	498	578	0	491	39	4	
0	0	0	0	0	498	579	0	502	39	4	
1	0	0	0	0	503	577	0	508	39	4	
2	0	0	0	0	502	572	0	507	39	4	
3	0	0	0	0	507	565	0	493	39	4	
4	0	0	0	0	504	559	0	488	39	4	
5	0	0	0	0	504	553	0	480	39	4	
6	0	0	0	0	509	548	0	472	39	4	
7	0	0	0	0	503	548	0	472	39	4	
8	0	0	0	0	498	552	0	463	39	4	
9	0	0	0	0	502	555	0	462	39	4	
10	0	0	0	0	504	556	0	456	39	4	
11	0	0	0	0	504	562	0	459	39	4	
12	0	0	0	0	502	573	0	466	39	4	
13	0	0	0	0	499	572	0	463	39	4	
14	0	0	0	0	504	569	0	467	39	4	
15	0	0	0	0	503	574	0	465	39	4	
0	0	0	0	0	505	580	0	463	39	4	
1	0	0	0	0	503	588	0	467	39	4	
2	0	0	0	0	501	584	0	462	39	4	
3	0	0	0	0	503	579	0	465	39	4	
4	0	0	0	0	508	578	0	463	39	4	
5	0	0	0	0	510	580	0	464	39	4	
6	0	0	0	0	507	584	0	468	39	4	
7	0	0	0	0	504	580	0	467	39	4	
8	0	0	0	0	496	582	0	472	39	4	
9	0	0	0	0	504	586	0	487	39	4	
10	0	0	0	0	512	591	0	504	39	4	
11	0	0	0	0	504	593	0	510	39	4	
12	0	0	0	0	501	585	0	503	39	4	
13	0	0	0	0	501	580	0	501	39	4	
14	0	0	0	0	502	582	0	493	39	4	
15	0	0	0	0	505	585	0	488	39	4	
0	0	0	0	0	506	590	0	484	38	4	
1	0	0	0	0	503	595	0	475	39	4	
2	0	0	0	0	501	600	0	476	39	4	
3	0	0	0	0	502	601	0	476	39	4	
4	0	0	0	0	507	598	0	477	38	4	
5	0	0	0	0	508	595	0	484	39	4	
6	0	0	0	0	507	591	0	483	39	4	
