# OpenSignals Text File Format. Version 1
# {"98:D3:41:FD:4F:0D": {"position": 0, "device": "bitalino_rev", "device name": "98:D3:41:FD:4F:0D", "device connection": "BTH98:D3:41:FD:4F:0D", "sampling rate": 1000, "resolution": [4, 1, 1, 1, 1, 10, 10, 10, 10, 6, 6], "firmware version": 1282, "comments": "", "keywords": "", "mode": 0, "sync interval": 2, "date": "2024-4-19", "time": "10:45:45.120", "channels": [1, 2, 3, 4, 5, 6], "sensor": ["RAW", "ECGBIT", "RAW", "RAW", "RAW", "RAW"], "label": ["A1", "A2", "A3", "A4", "A5", "A6"], "column": ["nSeq", "I1", "I2", "O1", "O2", "A1", "A2", "A3", "A4", "A5", "A6"], "special": [{}, {}, {}, {}, {}, {}], "digital IO": [0, 0, 1, 1], "convertedValues": 0}}
# EndOfHeader
0	0	0	0	0	496	494	0	550	39	8	
1	0	0	0	0	500	504	0	551	39	8	
2	0	0	0	0	500	513	0	550	39	10	
3	0	0	0	0	512	516	0	551	39	8	
4	0	0	0	0	509	504	0	551	39	8	
5	0	0	0	0	505	490	0	552	39	8	
6	0	0	0	0	502	476	0	555	39	8	
7	0	0	0	0	498	465	0	551	39	8	
8	0	0	0	0	508	469	0	547	39	8	
9	0	0	0	0	508	473	0	543	39	8	
10	0	0	0	0	506	476	0	543	39	9	
11	0	0	0	0	501	475	0	546	39	8	
12	0	0	0	0	504	476	0	546	39	8	
13	0	0	0	0	502	479	0	547	39	8	
14	0	0	0	0	501	483	0	547	39	8	
15	0	0	0	0	509	487	0	546	39	8	
0	0	0	0	0	500	491	0	543	39	8	
1	0	0	0	0	495	494	0	538	39	8	
2	0	0	0	0	497	502	0	539	39	8	
3	0	0	0	0	510	504	0	540	39	10	
4	0	0	0	0	505	501	0	550	39	8	
5	0	0	0	0	506	495	0	572	39	8	
6	0	0	0	0	513	496	0	599	39	8	
7	0	0	0	0	509	494	0	607	39	8	
8	0	0	0	0	507	496	0	612	39	8	
9	0	0	0	0	508	499	0	620	39	8	
10	0	0	0	0	512	497	0	611	39	8	
11	0	0	0	0	501	496	0	596	39	10	
12	0	0	0	0	506	499	0	577	39	8	
13	0	0	0	0	497	503	0	565	39	8	
14	0	0	0	0	497	494	0	556	39	8	
15	0	0	0	0	499	487	0	552	39	8	
0	0	0	0	0	496	483	0	549	39	8	
1	0	0	0	0	496	479	0	564	39	8	
2	0	0	0	0	496	481	0	583	39	8	
3	0	0	0	0	502	483	0	585	39	9	
4	0	0	0	0	500	486	0	579	39	8	
5	0	0	0	0	503	490	0	579	39	8	
6	0	0	0	0	510	499	0	570	39	8	
7	0	0	0	0	511	504	0	558	39	8	
8	0	0	0	0	508	504	0	549	39	8	
9	0	0	0	0	503	505	0	547	39	8	
10	0	0	0	0	519	506	0	565	39	8	
11	0	0	0	0	508	501	0	572	39	8	
12	0	0	0	0	502	493	0	568	39	10	
13	0	0	0	0	502	491	0	561	39	8	
14	0	0	0	0	499	494	0	554	39	8	
15	0	0	0	0	498	486	0	548	39	8	
0	0	0	0	0	497	484	0	560	39	8	
1	0	0	0	0	501	492	0	573	39	8	
2	0	0	0	0	494	502	0	574	39	8	
3	0	0	0	0	493	502	0	566	39	8	
4	0	0	0	0	509	501	0	556	39	10	
5	0	0	0	0	508	504	0	547	39	8	
6	0	0	0	0	511	514	0	540	39	8	
7	0	0	0	0	504	524	0	536	39	8	
8	0	0	0	0	505	535	0	539	39	8	
9	0	0	0	0	508	548	0	559	39	8	
10	0	0	0	0	512	547	0	571	39	8	
11	0	0	0	0	511	539	0	568	39	8	
12	0	0	0	0	510	524	0	560	39	9	
13	0	0	0	0	505	510	0	553	39	8	
14	0	0	0	0	499	499	0	545	39	8	
15	0	0	0	0	506	496	0	539	39	8	
0	0	0	0	0	499	501	0	566	39	8	
1	0	0	0	0	501	502	0	564	39	8	
2	0	0	0	0	505	492	0	563	39	8	
3	0	0	0	0	495	487	0	560	39	8	
4	0	0	0	0	492	485	0	564	39	8	
5	0	0	0	0	507	478	0	562	39	10	
6	0	0	0	0	511	470	0	556	39	8	
7	0	0	0	0	510	461	0	565	39	8	
8	0	0	0	0	503	454	0	543	39	8	
9	0	0	0	0	511	446	0	537	39	8	
10	0	0	0	0	504	451	0	550	39	8	
11	0	0	0	0	508	463	0	573	39	8	
12	0	0	0	0	510	476	0	579	39	8	
13	0	0	0	0	504	485	0	572	39	10	
14	0	0	0	0	505	500	0	560	39	8	
15	0	0	0	0	497	523	0	551	39	8	
0	0	0	0	0	500	534	0	551	39	8	
1	0	0	0	0	497	542	0	565	39	8	
2	0	0	0	0	499	540	0	566	39	8	
3	0	0	0	0	504	527	0	557	39	8	
4	0	0	0	0	497	511	0	549	39	8	
5	0	0	0	0	496	497	0	559	39	9	
6	0	0	0	0	508	492	0	537	39	8	
7	0	0	0	0	507	484	0	530	39	8	
8	0	0	0	0	508	474	0	528	39	8	
9	0	0	0	0	511	471	0	540	39	8	
10	0	0	0	0	504	470	0	563	39	8	
11	0	0	0	0	500	468	0	566	38	8	
12	0	0	0	0	523	467	0	571	38	8	
13	0	0	0	0	512	468	0	552	38	8	
14	0	0	0	0	499	470	0	544	38	10	
15	0	0	0	0	497	470	0	545	38	8	
0	0	0	0	0	498	472	0	559	39	8	
1	0	0	0	0	498	477	0	562	38	8	
2	0	0	0	0	503	489	0	555	38	8	
3	0	0	0	0	498	496	0	556	38	8	
4	0	0	0	0	492	496	0	552	38	8	
5	0	0	0	0	496	495	0	547	38	8	
6	0	0	0	0	502	495	0	540	38	10	
7	0	0	0	0	507	500	0	532	38	8	
8	0	0	0	0	503	501	0	527	38	8	
9	0	0	0	0	511	493	0	534	38	8	
10	0	0	0	0	509	491	0	527	38	8	
11	0	0	0	0	508	504	0	547	38	8	
12	0	0	0	0	513	517	0	560	38	8	
13	0	0	0	0	512	523	0	556	38	8	
14	0	0	0	0	508	514	0	548	38	9	
15	0	0	0	0	494	507	0	543	38	8	
0	0	0	0	0	502	511	0	538	38	8	
1	0	0	0	0	499	515	0	551	38	8	
2	0	0	0	0	498	511	0	568	38	8	
3	0	0	0	0	502	504	0	567	38	8	
4	0	0	0	0	495	492	0	557	38	8	
5	0	0	0	0	498	479	0	545	38	8	
6	0	0	0	0	500	468	0	542	38	8	
7	0	0	0	0	512	466	0	541	38	10	
8	0	0	0	0	504	471	0	550	39	8	
9	0	0	0	0	507	467	0	544	38	8	
10	0	0	0	0	508	467	0	535	38	8	
11	0	0	0	0	502	470	0	526	38	8	
12	0	0	0	0	510	475	0	520	38	8	
13	0	0	0	0	514	480	0	515	38	8	
14	0	0	0	0	506	486	0	512	38	8	
15	0	0	0	0	504	487	0	510	38	10	
0	0	0	0	0	501	492	0	507	38	8	
1	0	0	0	0	508	499	0	519	38	8	
2	0	0	0	0	493	504	0	543	38	8	
3	0	0	0	0	496	501	0	550	38	8	
4	0	0	0	0	498	505	0	545	38	8	
5	0	0	0	0	504	507	0	546	38	8	
6	0	0	0	0	494	508	0	542	38	8	
7	0	0	0	0	497	507	0	542	38	9	
8	0	0	0	0	502	515	0	557	38	8	
9	0	0	0	0	502	530	0	557	38	8	
10	0	0	0	0	510	550	0	546	38	8	
11	0	0	0	0	514	568	0	535	38	8	
12	0	0	0	0	512	583	0	524	38	8	
13	0	0	0	0	502	593	0	518	38	8	
14	0	0	0	0	517	595	0	511	38	8	
15	0	0	0	0	507	598	0	505	38	8	
0	0	0	0	0	494	606	0	505	39	10	
1	0	0	0	0	502	609	0	507	39	8	
2	0	0	0	0	498	615	0	531	39	8	
3	0	0	0	0	504	617	0	539	39	8	
4	0	0	0	0	503	618	0	535	38	8	
5	0	0	0	0	501	620	0	529	39	8	
6	0	0	0	0	497	621	0	521	39	8	
7	0	0	0	0	497	616	0	520	39	8	
8	0	0	0	0	502	599	0	533	39	10	
9	0	0	0	0	513	578	0	539	39	8	
10	0	0	0	0	504	555	0	535	39	8	
11	0	0	0	0	503	532	0	526	39	8	
12	0	0	0	0	512	515	0	520	39	8	
13	0	0	0	0	500	494	0	521	39	8	
14	0	0	0	0	515	468	0	508	39	8	
15	0	0	0	0	513	447	0	506	39	8	
0	0	0	0	0	508	437	0	512	39	9	
1	0	0	0	0	500	436	0	531	39	8	
2	0	0	0	0	499	435	0	536	39	8	
3	0	0	0	0	511	426	0	531	39	8	
4	0	0	0	0	498	417	0	534	39	8	
5	0	0	0	0	494	408	0	529	39	8	
6	0	0	0	0	500	396	0	524	39	8	
7	0	0	0	0	494	392	0	518	39	8	
8	0	0	0	0	499	391	0	509	39	8	
9	0	0	0	0	502	392	0	519	39	10	
10	0	0	0	0	506	386	0	537	39	8	
11	0	0	0	0	508	382	0	540	39	8	
12	0	0	0	0	508	385	0	532	39	8	
13	0	0	0	0	503	387	0	523	39	8	
14	0	0	0	0	505	391	0	518	39	8	
15	0	0	0	0	514	390	0	511	39	8	
0	0	0	0	0	513	387	0	509	39	8	
1	0	0	0	0	506	376	0	515	39	10	
2	0	0	0	0	497	363	0	502	39	8	
3	0	0	0	0	503	358	0	500	39	8	
4	0	0	0	0	499	349	0	506	38	8	
5	0	0	0	0	492	336	0	532	39	8	
6	0	0	0	0	496	326	0	541	39	8	
7	0	0	0	0	491	320	0	556	39	8	
8	0	0	0	0	497	327	0	574	39	8	
9	0	0	0	0	500	338	0	553	39	9	
10	0	0	0	0	507	343	0	538	39	8	
11	0	0	0	0	502	347	0	527	38	8	
12	0	0	0	0	511	351	0	517	38	8	
13	0	0	0	0	512	364	0	512	38	8	
14	0	0	0	0	504	389	0	507	38	8	
15	0	0	0	0	504	414	0	507	38	8	
0	0	0	0	0	515	434	0	504	38	8	
1	0	0	0	0	512	446	0	521	38	8	
2	0	0	0	0	501	457	0	542	38	10	
3	0	0	0	0	503	467	0	553	38	8	
4	0	0	0	0	494	477	0	572	38	8	
5	0	0	0	0	498	491	0	574	38	8	
6	0	0	0	0	501	496	0	581	38	8	
7	0	0	0	0	502	496	0	577	38	8	
8	0	0	0	0	500	501	0	567	38	7	
9	0	0	0	0	498	512	0	559	38	8	
10	0	0	0	0	505	516	0	556	38	9	
11	0	0	0	0	508	515	0	544	38	8	
12	0	0	0	0	504	513	0	531	38	8	
13	0	0	0	0	503	516	0	520	38	8	
14	0	0	0	0	509	523	0	513	38	8	
15	0	0	0	0	509	525	0	507	38	8	
0	0	0	0	0	513	528	0	500	38	8	
1	0	0	0	0	506	535	0	501	38	8	
2	0	0	0	0	509	536	0	498	38	9	
3	0	0	0	0	498	542	0	503	38	8	
4	0	0	0	0	499	547	0	497	38	8	
5	0	0	0	0	507	555	0	496	38	8	
6	0	0	0	0	497	560	0	498	38	8	
7	0	0	0	0	499	555	0	496	38	8	
8	0	0	0	0	506	550	0	498	38	8	
9	0	0	0	0	497	546	0	499	38	7	
10	0	0	0	0	497	550	0	518	38	8	
11	0	0	0	0	507	557	0	536	38	10	
12	0	0	0	0	503	552	0	535	38	8	
13	0	0	0	0	504	544	0	534	38	8	
14	0	0	0	0	507	537	0	548	38	8	
15	0	0	0	0	518	532	0	554	38	8	
0	0	0	0	0	505	529	0	559	38	8	
1	0	0	0	0	515	524	0	567	38	7	
2	0	0	0	0	504	527	0	557	38	7	
3	0	0	0	0	506	532	0	542	38	9	
4	0	0	0	0	493	535	0	538	38	8	
5	0	0	0	0	495	536	0	531	38	8	
6	0	0	0	0	497	541	0	521	38	8	
7	0	0	0	0	494	542	0	515	38	8	
8	0	0	0	0	499	544	0	511	38	8	
9	0	0	0	0	497	542	0	504	38	7	
10	0	0	0	0	500	537	0	515	38	7	
11	0	0	0	0	493	540	0	536	39	9	
12	0	0	0	0	510	543	0	540	38	8	
13	0	0	0	0	504	548	0	531	39	8	
14	0	0	0	0	511	559	0	528	39	8	
15	0	0	0	0	515	572	0	512	39	8	
0	0	0	0	0	503	583	0	500	39	8	
1	0	0	0	0	508	583	0	492	39	7	
2	0	0	0	0	505	568	0	484	39	7	
3	0	0	0	0	520	545	0	480	39	7	
4	0	0	0	0	504	523	0	480	39	9	
5	0	0	0	0	490	508	0	496	39	8	
6	0	0	0	0	496	501	0	481	39	8	
7	0	0	0	0	498	506	0	479	39	8	
8	0	0	0	0	500	516	0	473	39	8	
9	0	0	0	0	497	526	0	474	39	8	
10	0	0	0	0	492	531	0	474	39	7	
11	0	0	0	0	502	537	0	475	39	7	
12	0	0	0	0	498	545	0	475	39	9	
13	0	0	0	0	508	549	0	473	39	8	
14	0	0	0	0	508	553	0	475	39	8	
15	0	0	0	0	508	554	0	472	39	8	
0	0	0	0	0	504	556	0	472	39	8	
1	0	0	0	0	504	550	0	470	39	8	
2	0	0	0	0	510	541	0	466	39	8	
3	0	0	0	0	510	540	0	471	39	8	
4	0	0	0	0	513	537	0	471	39	9	
5	0	0	0	0	503	539	0	479	39	8	
6	0	0	0	0	497	540	0	502	39	8	
7	0	0	0	0	508	542	0	515	39	8	
8	0	0	0	0	498	549	0	510	39	8	
9	0	0	0	0	497	563	0	498	39	8	
10	0	0	0	0	508	566	0	494	39	8	
11	0	0	0	0	498	565	0	487	39	7	
12	0	0	0	0	500	563	0	483	39	8	
13	0	0	0	0	505	566	0	483	39	10	
14	0	0	0	0	498	571	0	480	39	8	
15	0	0	0	0	507	579	0	483	39	8	
0	0	0	0	0	502	587	0	477	39	8	
1	0	0	0	0	515	590	0	470	39	8	
2	0	0	0	0	497	579	0	471	39	8	
3	0	0	0	0	518	566	0	472	39	7	
4	0	0	0	0	507	561	0	477	39	8	
5	0	0	0	0	503	547	0	478	39	10	
6	0	0	0	0	499	533	0	479	39	8	
7	0	0	0	0	501	526	0	479	39	8	
8	0	0	0	0	503	519	0	475	39	8	
9	0	0	0	0	501	517	0	470	39	8	
10	0	0	0	0	499	519	0	469	39	8	
11	0	0	0	0	495	524	0	468	39	8	
12	0	0	0	0	498	532	0	473	39	8	
13	0	0	0	0	499	547	0	475	39	9	
14	0	0	0	0	508	556	0	480	39	8	
15	0	0	0	0	509	555	0	490	39	8	
0	0	0	0	0	512	556	0	475	39	8	
1	0	0	0	0	507	556	0	471	39	8	
2	0	0	0	0	511	547	0	480	39	8	
3	0	0	0	0	501	543	0	510	39	8	
4	0	0	0	0	512	544	0	522	39	7	
5	0	0	0	0	512	540	0	518	39	8	
6	0	0	0	0	498	529	0	510	39	10	
7	0	0	0	0	496	522	0	497	39	8	
8	0	0	0	0	500	513	0	487	39	8	
9	0	0	0	0	496	506	0	478	39	8	
10	0	0	0	0	499	499	0	471	39	8	
11	0	0	0	0	503	503	0	471	39	8	
12	0	0	0	0	496	510	0	472	39	7	
13	0	0	0	0	499	511	0	489	39	7	
14	0	0	0	0	504	516	0	476	39	10	
15	0	0	0	0	510	524	0	473	39	8	
0	0	0	0	0	501	526	0	473	39	8	
1	0	0	0	0	508	528	0	468	39	8	
2	0	0	0	0	502	539	0	471	38	8	
3	0	0	0	0	506	545	0	472	38	8	
4	0	0	0	0	510	551	0	491	38	7	
5	0	0	0	0	509	558	0	479	38	7	
6	0	0	0	0	511	557	0	480	38	9	
7	0	0	0	0	504	555	0	485	38	8	
8	0	0	0	0	502	547	0	482	38	8	
9	0	0	0	0	495	544	0	499	38	8	
10	0	0	0	0	497	546	0	516	38	8	
11	0	0	0	0	495	551	0	531	38	8	
12	0	0	0	0	504	559	0	550	38	7	
13	0	0	0	0	504	568	0	551	38	7	
14	0	0	0	0	502	577	0	561	38	7	
15	0	0	0	0	501	571	0	568	38	9	
0	0	0	0	0	514	561	0	565	38	8	
1	0	0	0	0	503	563	0	573	38	8	
2	0	0	0	0	504	567	0	564	38	8	
3	0	0	0	0	499	567	0	567	38	8	
4	0	0	0	0	502	568	0	570	38	7	
5	0	0	0	0	515	574	0	564	38	7	
6	0	0	0	0	510	575	0	570	38	7	
7	0	0	0	0	511	564	0	561	38	9	
8	0	0	0	0	500	558	0	564	38	8	
9	0	0	0	0	501	562	0	566	38	8	
10	0	0	0	0	503	570	0	561	38	8	
11	0	0	0	0	496	574	0	570	38	8	
12	0	0	0	0	495	571	0	564	38	7	
13	0	0	0	0	495	571	0	567	38	7	
14	0	0	0	0	492	573	0	566	38	7	
15	0	0	0	0	500	572	0	560	38	8	
0	0	0	0	0	507	568	0	566	38	8	
1	0	0	0	0	509	572	0	558	38	8	
2	0	0	0	0	512	575	0	559	38	8	
3	0	0	0	0	508	568	0	559	38	8	
4	0	0	0	0	503	561	0	546	38	8	
5	0	0	0	0	500	566	0	528	39	7	
6	0	0	0	0	515	572	0	512	39	7	
7	0	0	0	0	513	574	0	497	39	7	
8	0	0	0	0	504	577	0	499	39	9	
9	0	0	0	0	500	574	0	495	39	8	
10	0	0	0	0	496	569	0	515	39	8	
11	0	0	0	0	492	572	0	520	39	8	
12	0	0	0	0	504	571	0	515	39	8	
13	0	0	0	0	507	566	0	508	39	7	
14	0	0	0	0	492	568	0	501	39	7	
15	0	0	0	0	492	573	0	503	39	7	
0	0	0	0	0	499	575	0	516	39	9	
1	0	0	0	0	509	573	0	521	39	8	
2	0	0	0	0	503	564	0	518	39	8	
3	0	0	0	0	511	551	0	516	39	8	
4	0	0	0	0	513	546	0	518	39	8	
5	0	0	0	0	513	544	0	511	39	7	
6	0	0	0	0	513	537	0	502	39	7	
7	0	0	0	0	511	528	0	498	39	7	
8	0	0	0	0	509	526	0	490	39	8	
9	0	0	0	0	496	530	0	493	39	8	
10	0	0	0	0	493	528	0	511	39	8	
11	0	0	0	0	504	521	0	519	39	8	
12	0	0	0	0	504	516	0	515	39	8	
13	0	0	0	0	496	515	0	507	39	7	
14	0	0	0	0	502	516	0	501	39	7	
15	0	0	0	0	501	521	0	493	39	7	
0	0	0	0	0	504	530	0	487	40	7	
1	0	0	0	0	507	540	0	486	39	9	
2	0	0	0	0	506	539	0	480	39	8	
3	0	0	0	0	499	534	0	481	39	8	
4	0	0	0	0	513	530	0	478	39	8	
5	0	0	0	0	513	531	0	478	39	8	
6	0	0	0	0	504	534	0	478	39	7	
7	0	0	0	0	509	535	0	476	39	7	
8	0	0	0	0	503	536	0	476	39	7	
9	0	0	0	0	502	537	0	473	39	9	
10	0	0	0	0	502	542	0	470	39	8	
11	0	0	0	0	506	544	0	474	39	8	
12	0	0	0	0	497	538	0	475	39	8	
13	0	0	0	0	502	522	0	479	39	8	
14	0	0	0	0	494	504	0	480	39	7	
15	0	0	0	0	497	496	0	476	39	7	
0	0	0	0	0	496	492	0	476	39	7	
1	0	0	0	0	493	484	0	470	39	8	
2	0	0	0	0	507	476	0	475	39	8	
3	0	0	0	0	511	469	0	474	39	8	
4	0	0	0	0	506	464	0	476	39	8	
5	0	0	0	0	508	467	0	481	39	8	
6	0	0	0	0	506	463	0	483	39	8	
7	0	0	0	0	503	460	0	493	39	7	
8	0	0	0	0	519	458	0	515	39	7	
9	0	0	0	0	512	458	0	527	39	7	
10	0	0	0	0	500	455	0	524	39	10	
11	0	0	0	0	493	449	0	517	39	8	
12	0	0	0	0	497	450	0	513	39	8	
13	0	0	0	0	496	458	0	503	39	8	
14	0	0	0	0	506	470	0	496	39	8	
15	0	0	0	0	500	473	0	491	39	8	
0	0	0	0	0	502	469	0	495	39	7	
1	0	0	0	0	493	461	0	515	39	7	
2	0	0	0	0	499	450	0	523	39	9	
3	0	0	0	0	507	433	0	540	39	8	
4	0	0	0	0	509	420	0	552	39	8	
5	0	0	0	0	511	417	0	555	39	8	
6	0	0	0	0	500	436	0	569	39	8	
7	0	0	0	0	504	455	0	566	39	8	
8	0	0	0	0	500	467	0	567	39	7	
9	0	0	0	0	512	465	0	570	39	7	
10	0	0	0	0	502	456	0	567	39	9	
11	0	0	0	0	499	449	0	576	39	8	
12	0	0	0	0	504	443	0	567	39	8	
13	0	0	0	0	500	439	0	550	39	8	
14	0	0	0	0	504	441	0	552	39	8	
15	0	0	0	0	503	443	0	520	39	8	
0	0	0	0	0	499	442	0	511	39	7	
1	0	0	0	0	496	446	0	504	39	7	
2	0	0	0	0	503	448	0	498	39	7	
3	0	0	0	0	505	454	0	497	39	10	
4	0	0	0	0	500	453	0	493	39	8	
5	0	0	0	0	503	454	0	494	39	8	
6	0	0	0	0	510	457	0	494	39	8	
7	0	0	0	0	504	455	0	510	39	8	
8	0	0	0	0	506	440	0	528	39	7	
9	0	0	0	0	514	424	0	537	39	7	
10	0	0	0	0	515	420	0	555	39	7	
11	0	0	0	0	503	418	0	556	39	9	
12	0	0	0	0	499	420	0	553	38	8	
13	0	0	0	0	496	426	0	543	39	8	
14	0	0	0	0	497	429	0	530	39	8	
15	0	0	0	0	505	436	0	520	38	8	
0	0	0	0	0	502	434	0	523	39	7	
1	0	0	0	0	497	437	0	538	39	7	
2	0	0	0	0	501	444	0	551	39	7	
3	0	0	0	0	493	445	0	547	39	8	
4	0	0	0	0	502	441	0	536	38	8	
5	0	0	0	0	503	438	0	524	38	8	
6	0	0	0	0	508	433	0	511	39	8	
7	0	0	0	0	509	433	0	506	39	8	
8	0	0	0	0	507	433	0	499	39	7	
9	0	0	0	0	508	435	0	501	39	7	
10	0	0	0	0	510	436	0	519	39	7	
11	0	0	0	0	518	439	0	526	39	7	
12	0	0	0	0	507	446	0	519	38	9	
13	0	0	0	0	498	447	0	510	39	8	
14	0	0	0	0	500	446	0	504	39	8	
15	0	0	0	0	496	447	0	494	39	8	
0	0	0	0	0	503	456	0	484	39	8	
1	0	0	0	0	497	472	0	495	39	7	
2	0	0	0	0	490	479	0	514	39	7	
3	0	0	0	0	494	481	0	519	39	7	
4	0	0	0	0	505	484	0	516	39	9	
5	0	0	0	0	510	480	0	518	39	8	
6	0	0	0	0	506	476	0	513	39	8	
7	0	0	0	0	508	475	0	513	39	8	
8	0	0	0	0	496	475	0	530	39	8	
9	0	0	0	0	508	474	0	529	39	7	
10	0	0	0	0	511	470	0	520	39	7	
11	0	0	0	0	515	462	0	513	39	7	
12	0	0	0	0	512	453	0	503	39	8	
13	0	0	0	0	499	446	0	497	39	8	
14	0	0	0	0	498	438	0	491	39	8	
15	0	0	0	0	506	432	0	486	39	8	
0	0	0	0	0	501	434	0	486	39	8	
1	0	0	0	0	503	431	0	490	39	8	
2	0	0	0	0	500	430	0	514	39	7	
3	0	0	0	0	489	439	0	523	39	7	
4	0	0	0	0	497	443	0	517	39	7	
5	0	0	0	0	501	450	0	512	39	9	
6	0	0	0	0	497	455	0	502	39	8	
7	0	0	0	0	504	463	0	501	39	8	
8	0	0	0	0	510	466	0	515	39	8	
9	0	0	0	0	514	465	0	523	39	8	
10	0	0	0	0	503	471	0	520	39	8	
11	0	0	0	0	514	472	0	511	39	7	
12	0	0	0	0	510	470	0	505	39	7	
13	0	0	0	0	496	472	0	500	39	9	
14	0	0	0	0	509	473	0	494	39	8	
15	0	0	0	0	502	470	0	493	39	8	
0	0	0	0	0	504	467	0	498	39	8	
1	0	0	0	0	492	462	0	519	39	8	
2	0	0	0	0	500	460	0	522	39	8	
3	0	0	0	0	497	463	0	516	39	7	
4	0	0	0	0	497	473	0	508	39	8	
5	0	0	0	0	499	484	0	499	39	9	
6	0	0	0	0	510	491	0	511	39	8	
7	0	0	0	0	511	492	0	504	39	8	
8	0	0	0	0	501	495	0	522	39	8	
9	0	0	0	0	504	490	0	537	39	8	
10	0	0	0	0	504	476	0	534	39	8	
11	0	0	0	0	505	462	0	525	39	8	
12	0	0	0	0	515	454	0	531	39	8	
13	0	0	0	0	514	450	0	505	39	8	
14	0	0	0	0	504	457	0	499	39	10	
15	0	0	0	0	503	467	0	494	39	8	
0	0	0	0	0	500	474	0	496	39	8	
1	0	0	0	0	497	480	0	513	39	8	
2	0	0	0	0	508	486	0	526	39	8	
3	0	0	0	0	508	491	0	524	39	8	
4	0	0	0	0	495	494	0	514	39	8	
5	0	0	0	0	489	494	0	508	39	8	
6	0	0	0	0	500	484	0	501	39	10	
7	0	0	0	0	508	468	0	495	39	8	
8	0	0	0	0	505	451	0	503	39	8	
9	0	0	0	0	505	440	0	515	39	8	
10	0	0	0	0	508	441	0	515	39	8	
11	0	0	0	0	515	448	0	509	39	8	
12	0	0	0	0	518	458	0	502	39	8	
13	0	0	0	0	511	468	0	497	39	8	
14	0	0	0	0	503	469	0	491	39	9	
15	0	0	0	0	496	465	0	491	39	8	
0	0	0	0	0	499	471	0	486	39	8	
1	0	0	0	0	507	472	0	503	39	8	
2	0	0	0	0	502	478	0	522	39	8	
3	0	0	0	0	502	477	0	521	39	8	
4	0	0	0	0	501	473	0	517	38	8	
5	0	0	0	0	499	467	0	517	39	8	
6	0	0	0	0	501	464	0	525	39	8	
7	0	0	0	0	498	463	0	513	39	10	
8	0	0	0	0	505	459	0	525	39	8	
9	0	0	0	0	500	460	0	522	38	8	
10	0	0	0	0	498	461	0	512	39	8	
11	0	0	0	0	514	464	0	500	38	8	
12	0	0	0	0	502	475	0	494	38	8	
13	0	0	0	0	511	495	0	489	38	8	
14	0	0	0	0	512	507	0	484	38	8	
15	0	0	0	0	508	511	0	480	38	10	
0	0	0	0	0	504	508	0	475	38	8	
1	0	0	0	0	497	506	0	487	38	8	
2	0	0	0	0	505	502	0	510	38	8	
3	0	0	0	0	503	494	0	517	38	8	
4	0	0	0	0	504	494	0	511	38	8	
5	0	0	0	0	497	491	0	500	38	8	
6	0	0	0	0	497	488	0	496	38	8	
7	0	0	0	0	500	483	0	496	38	9	
8	0	0	0	0	504	483	0	510	38	8	
9	0	0	0	0	502	477	0	508	38	8	
10	0	0	0	0	505	471	0	500	38	8	
11	0	0	0	0	508	466	0	494	38	8	
12	0	0	0	0	502	468	0	487	38	8	
13	0	0	0	0	502	478	0	487	38	8	
14	0	0	0	0	518	494	0	480	38	8	
15	0	0	0	0	514	510	0	474	38	8	
0	0	0	0	0	499	527	0	477	38	10	
1	0	0	0	0	500	537	0	483	38	8	
2	0	0	0	0	494	535	0	505	38	8	
3	0	0	0	0	499	524	0	512	38	8	
4	0	0	0	0	504	509	0	505	38	8	
5	0	0	0	0	503	503	0	499	38	8	
6	0	0	0	0	496	496	0	498	38	8	
7	0	0	0	0	494	489	0	518	38	8	
8	0	0	0	0	495	488	0	522	38	10	
9	0	0	0	0	504	493	0	534	38	8	
10	0	0	0	0	509	499	0	546	38	8	
11	0	0	0	0	502	498	0	539	38	8	
12	0	0	0	0	507	488	0	526	38	8	
13	0	0	0	0	505	483	0	511	38	8	
14	0	0	0	0	512	484	0	504	38	8	
15	0	0	0	0	511	483	0	503	38	8	
0	0	0	0	0	510	481	0	512	38	9	
1	0	0	0	0	502	483	0	509	38	8	
2	0	0	0	0	498	487	0	500	38	8	
3	0	0	0	0	501	489	0	492	38	8	
4	0	0	0	0	503	493	0	488	38	8	
5	0	0	0	0	503	499	0	482	38	8	
6	0	0	0	0	506	507	0	479	38	8	
7	0	0	0	0	487	515	0	476	38	8	
8	0	0	0	0	493	521	0	475	38	8	
9	0	0	0	0	500	521	0	489	38	10	
10	0	0	0	0	503	517	0	514	38	8	
11	0	0	0	0	509	506	0	520	38	8	
12	0	0	0	0	513	495	0	515	38	8	
13	0	0	0	0	504	482	0	503	38	8	
14	0	0	0	0	508	476	0	498	38	8	
15	0	0	0	0	511	474	0	498	38	8	
0	0	0	0	0	511	478	0	511	38	8	
1	0	0	0	0	502	487	0	509	38	10	
2	0	0	0	0	499	497	0	501	38	8	
3	0	0	0	0	496	506	0	504	38	8	
4	0	0	0	0	491	510	0	500	38	8	
5	0	0	0	0	499	515	0	499	38	8	
6	0	0	0	0	496	523	0	493	38	8	
7	0	0	0	0	502	521	0	488	38	8	
8	0	0	0	0	501	518	0	487	39	8	
9	0	0	0	0	491	518	0	487	39	9	
10	0	0	0	0	512	514	0	484	38	8	
11	0	0	0	0	512	501	0	503	38	8	
12	0	0	0	0	511	492	0	513	38	8	
13	0	0	0	0	507	489	0	511	38	8	
14	0	0	0	0	508	484	0	501	39	8	
15	0	0	0	0	501	483	0	495	39	8	
0	0	0	0	0	516	479	0	484	39	8	
1	0	0	0	0	505	472	0	474	39	8	
2	0	0	0	0	497	471	0	483	39	10	
3	0	0	0	0	497	473	0	505	39	8	
4	0	0	0	0	497	470	0	510	38	8	
5	0	0	0	0	498	463	0	504	39	8	
6	0	0	0	0	500	462	0	513	39	8	
7	0	0	0	0	508	467	0	517	39	8	
8	0	0	0	0	494	465	0	504	39	8	
9	0	0	0	0	497	467	0	497	39	8	
10	0	0	0	0	499	472	0	487	39	10	
11	0	0	0	0	513	485	0	478	39	8	
12	0	0	0	0	502	495	0	475	39	8	
13	0	0	0	0	508	495	0	470	39	8	
14	0	0	0	0	508	494	0	470	39	8	
15	0	0	0	0	501	491	0	468	39	8	
0	0	0	0	0	510	499	0	465	39	8	
1	0	0	0	0	512	500	0	465	39	8	
2	0	0	0	0	510	495	0	465	39	9	
3	0	0	0	0	504	485	0	469	39	8	
4	0	0	0	0	502	473	0	470	39	8	
5	0	0	0	0	492	473	0	469	39	8	
6	0	0	0	0	499	483	0	471	39	8	
7	0	0	0	0	495	489	0	470	39	8	
8	0	0	0	0	498	489	0	470	39	8	
9	0	0	0	0	492	497	0	468	39	8	
10	0	0	0	0	499	511	0	467	39	8	
11	0	0	0	0	508	523	0	472	39	10	
12	0	0	0	0	507	527	0	473	39	8	
13	0	0	0	0	505	532	0	477	39	8	
14	0	0	0	0	507	537	0	478	39	8	
15	0	0	0	0	510	536	0	475	39	8	
0	0	0	0	0	499	529	0	474	39	8	
1	0	0	0	0	513	513	0	471	39	8	
2	0	0	0	0	517	483	0	475	39	8	
3	0	0	0	0	504	460	0	502	39	9	
4	0	0	0	0	510	452	0	521	39	8	
5	0	0	0	0	495	461	0	521	39	8	
6	0	0	0	0	499	475	0	514	39	8	
7	0	0	0	0	497	489	0	510	39	8	
8	0	0	0	0	502	496	0	497	39	8	
9	0	0	0	0	505	497	0	491	39	8	
10	0	0	0	0	496	499	0	488	38	8	
11	0	0	0	0	498	500	0	484	39	9	
12	0	0	0	0	499	511	0	486	38	8	
13	0	0	0	0	503	513	0	484	39	8	
14	0	0	0	0	511	504	0	480	39	8	
15	0	0	0	0	504	504	0	480	39	8	
0	0	0	0	0	510	506	0	474	39	8	
1	0	0	0	0	504	511	0	472	39	8	
2	0	0	0	0	509	510	0	472	39	8	
3	0	0	0	0	514	503	0	472	39	8	
4	0	0	0	0	496	494	0	475	38	10	
5	0	0	0	0	500	484	0	476	39	8	
6	0	0	0	0	488	474	0	479	38	8	
7	0	0	0	0	493	465	0	476	38	8	
8	0	0	0	0	499	464	0	472	39	8	
9	0	0	0	0	509	470	0	472	38	8	
10	0	0	0	0	502	476	0	473	38	8	
11	0	0	0	0	503	482	0	476	38	8	
12	0	0	0	0	500	493	0	477	38	10	
13	0	0	0	0	513	508	0	476	38	8	
14	0	0	0	0	507	523	0	479	38	8	
15	0	0	0	0	504	529	0	477	38	8	
0	0	0	0	0	508	532	0	482	38	8	
1	0	0	0	0	504	535	0	505	38	8	
2	0	0	0	0	508	544	0	526	38	8	
3	0	0	0	0	516	552	0	518	38	8	
4	0	0	0	0	509	560	0	507	38	8	
5	0	0	0	0	499	564	0	501	38	8	
6	0	0	0	0	493	567	0	493	38	8	
7	0	0	0	0	504	567	0	486	38	8	
8	0	0	0	0	500	567	0	479	38	8	
9	0	0	0	0	499	571	0	477	38	8	
10	0	0	0	0	497	579	0	473	38	8	
11	0	0	0	0	500	588	0	472	38	8	
12	0	0	0	0	499	593	0	475	38	8	
13	0	0	0	0	503	594	0	478	38	10	
14	0	0	0	0	508	601	0	480	38	8	
15	0	0	0	0	510	611	0	483	38	8	
0	0	0	0	0	508	619	0	480	39	8	
1	0	0	0	0	502	626	0	472	39	8	
2	0	0	0	0	502	635	0	475	39	8	
3	0	0	0	0	510	622	0	476	39	8	
4	0	0	0	0	511	605	0	478	38	8	
5	0	0	0	0	507	590	0	480	39	10	
6	0	0	0	0	500	574	0	499	39	8	
7	0	0	0	0	499	554	0	483	39	8	
8	0	0	0	0	499	538	0	477	39	8	
9	0	0	0	0	504	530	0	479	39	8	
10	0	0	0	0	492	526	0	502	39	8	
11	0	0	0	0	502	525	0	516	39	8	
12	0	0	0	0	491	524	0	517	39	8	
13	0	0	0	0	501	521	0	511	39	9	
14	0	0	0	0	496	520	0	504	39	8	
15	0	0	0	0	507	512	0	497	39	8	
0	0	0	0	0	504	492	0	510	39	8	
1	0	0	0	0	512	464	0	524	39	8	
2	0	0	0	0	508	434	0	534	39	8	
3	0	0	0	0	500	406	0	550	39	8	
4	0	0	0	0	522	384	0	550	39	8	
5	0	0	0	0	508	367	0	559	39	8	
6	0	0	0	0	499	347	0	563	39	10	
7	0	0	0	0	506	332	0	559	39	8	
8	0	0	0	0	504	324	0	571	39	8	
9	0	0	0	0	501	329	0	566	39	8	
10	0	0	0	0	503	342	0	569	39	8	
11	0	0	0	0	506	348	0	568	39	8	
12	0	0	0	0	497	342	0	553	39	8	
13	0	0	0	0	494	342	0	533	39	8	
14	0	0	0	0	505	348	0	532	39	9	
15	0	0	0	0	502	351	0	522	39	8	
0	0	0	0	0	505	353	0	528	39	8	
1	0	0	0	0	509	356	0	528	39	8	
2	0	0	0	0	512	364	0	546	39	8	
3	0	0	0	0	509	372	0	547	39	8	
4	0	0	0	0	505	383	0	554	39	7	
5	0	0	0	0	510	396	0	572	39	7	
6	0	0	0	0	511	401	0	553	39	8	
7	0	0	0	0	505	406	0	563	39	8	
8	0	0	0	0	499	413	0	559	39	8	
9	0	0	0	0	506	419	0	560	39	8	
10	0	0	0	0	502	423	0	559	39	8	
11	0	0	0	0	500	421	0	552	39	8	
12	0	0	0	0	491	416	0	559	39	7	
13	0	0	0	0	499	417	0	551	39	7	
14	0	0	0	0	495	421	0	553	39	8	
15	0	0	0	0	498	429	0	550	39	10	
0	0	0	0	0	507	436	0	541	39	8	
1	0	0	0	0	507	448	0	549	39	8	
2	0	0	0	0	512	460	0	547	39	8	
3	0	0	0	0	507	469	0	553	39	8	
4	0	0	0	0	504	473	0	553	39	8	
5	0	0	0	0	516	476	0	542	39	7	
6	0	0	0	0	507	481	0	527	39	7	
7	0	0	0	0	507	492	0	512	39	9	
8	0	0	0	0	505	498	0	499	39	8	
9	0	0	0	0	493	514	0	496	39	8	
10	0	0	0	0	502	529	0	496	39	8	
11	0	0	0	0	500	545	0	520	39	8	
12	0	0	0	0	500	558	0	526	39	8	
13	0	0	0	0	499	564	0	520	39	7	
14	0	0	0	0	496	559	0	533	39	7	
15	0	0	0	0	492	551	0	540	39	8	
0	0	0	0	0	509	544	0	537	39	8	
1	0	0	0	0	508	533	0	527	39	8	
2	0	0	0	0	504	528	0	513	38	8	
3	0	0	0	0	507	534	0	505	38	8	
4	0	0	0	0	505	542	0	496	38	8	
5	0	0	0	0	503	550	0	492	38	8	
6	0	0	0	0	512	553	0	485	38	8	
7	0	0	0	0	508	552	0	483	38	8	
8	0	0	0	0	502	549	0	494	38	10	
9	0	0	0	0	496	545	0	510	38	8	
10	0	0	0	0	499	545	0	512	38	8	
11	0	0	0	0	502	553	0	505	38	8	
12	0	0	0	0	506	551	0	496	38	8	
13	0	0	0	0	506	543	0	492	38	8	
14	0	0	0	0	492	542	0	487	38	8	
15	0	0	0	0	498	549	0	487	38	8	
0	0	0	0	0	497	556	0	485	38	10	
1	0	0	0	0	511	561	0	500	38	8	
2	0	0	0	0	507	565	0	519	38	8	
3	0	0	0	0	502	572	0	518	38	8	
4	0	0	0	0	508	577	0	512	38	8	
5	0	0	0	0	506	583	0	501	38	8	
6	0	0	0	0	504	585	0	491	38	7	
7	0	0	0	0	511	582	0	498	38	7	
8	0	0	0	0	510	572	0	509	38	8	
9	0	0	0	0	502	564	0	508	38	8	
10	0	0	0	0	503	559	0	503	38	8	
11	0	0	0	0	499	551	0	506	38	8	
12	0	0	0	0	506	548	0	505	38	8	
13	0	0	0	0	496	549	0	496	38	8	
14	0	0	0	0	499	553	0	495	38	8	
15	0	0	0	0	503	558	0	489	38	8	
0	0	0	0	0	505	558	0	501	38	8	
1	0	0	0	0	504	555	0	491	38	10	
2	0	0	0	0	502	556	0	486	38	8	
3	0	0	0	0	510	561	0	492	38	8	
4	0	0	0	0	504	557	0	514	38	8	
5	0	0	0	0	515	555	0	529	38	8	
6	0	0	0	0	503	557	0	528	38	8	
7	0	0	0	0	507	553	0	533	38	8	
8	0	0	0	0	508	546	0	512	38	8	
9	0	0	0	0	504	538	0	505	38	10	
10	0	0	0	0	502	531	0	516	38	8	
11	0	0	0	0	496	533	0	527	38	8	
12	0	0	0	0	505	541	0	524	38	8	
13	0	0	0	0	501	554	0	516	38	8	
14	0	0	0	0	498	571	0	508	38	8	
15	0	0	0	0	505	585	0	497	38	7	
0	0	0	0	0	496	598	0	503	38	7	
1	0	0	0	0	493	609	0	513	38	8	
2	0	0	0	0	503	608	0	514	38	8	
3	0	0	0	0	510	605	0	507	38	8	
4	0	0	0	0	508	593	0	497	38	8	
5	0	0	0	0	510	583	0	496	38	8	
6	0	0	0	0	508	580	0	489	38	8	
7	0	0	0	0	503	580	0	489	38	8	
8	0	0	0	0	507	572	0	485	38	8	
9	0	0	0	0	515	563	0	481	38	8	
10	0	0	0	0	505	557	0	496	38	10	
11	0	0	0	0	499	549	0	518	38	8	
12	0	0	0	0	499	536	0	524	38	8	
13	0	0	0	0	502	527	0	523	38	8	
14	0	0	0	0	496	513	0	533	38	8	
15	0	0	0	0	502	502	0	542	39	8	
0	0	0	0	0	492	499	0	535	39	8	
1	0	0	0	0	502	498	0	524	39	8	
2	0	0	0	0	495	501	0	512	39	10	
3	0	0	0	0	515	511	0	502	39	8	
4	0	0	0	0	506	521	0	497	39	8	
5	0	0	0	0	511	529	0	489	39	8	
6	0	0	0	0	509	529	0	491	39	8	
7	0	0	0	0	498	527	0	489	39	8	
8	0	0	0	0	510	533	0	488	39	7	
9	0	0	0	0	507	542	0	498	39	7	
10	0	0	0	0	502	547	0	525	39	8	
11	0	0	0	0	496	546	0	534	39	8	
12	0	0	0	0	500	544	0	529	39	8	
13	0	0	0	0	506	543	0	520	39	8	
14	0	0	0	0	493	545	0	526	39	8	
15	0	0	0	0	501	556	0	516	39	8	
0	0	0	0	0	502	572	0	529	39	8	
1	0	0	0	0	498	586	0	530	39	7	
2	0	0	0	0	507	592	0	523	39	8	
3	0	0	0	0	506	593	0	515	39	10	
4	0	0	0	0	499	582	0	509	39	8	
5	0	0	0	0	496	573	0	505	39	8	
6	0	0	0	0	502	569	0	501	39	8	
7	0	0	0	0	512	564	0	495	39	8	
8	0	0	0	0	508	567	0	496	39	8	
9	0	0	0	0	520	569	0	499	39	8	
10	0	0	0	0	514	572	0	524	39	8	
11	0	0	0	0	506	573	0	530	39	10	
12	0	0	0	0	504	572	0	524	39	8	
13	0	0	0	0	499	563	0	527	39	8	
14	0	0	0	0	502	543	0	523	39	8	
15	0	0	0	0	494	531	0	521	39	8	
0	0	0	0	0	494	526	0	536	39	8	
1	0	0	0	0	498	522	0	545	39	7	
2	0	0	0	0	499	519	0	539	39	7	
3	0	0	0	0	501	522	0	527	39	8	
4	0	0	0	0	508	527	0	534	39	8	
5	0	0	0	0	507	534	0	510	39	8	
6	0	0	0	0	504	539	0	501	39	8	
7	0	0	0	0	506	551	0	500	39	8	
8	0	0	0	0	510	566	0	504	39	8	
9	0	0	0	0	507	577	0	524	39	8	
10	0	0	0	0	508	579	0	529	39	7	
11	0	0	0	0	511	583	0	541	39	8	
12	0	0	0	0	507	591	0	519	39	10	
13	0	0	0	0	504	592	0	510	39	8	
14	0	0	0	0	492	592	0	507	39	8	
15	0	0	0	0	499	600	0	501	39	8	
0	0	0	0	0	498	605	0	496	39	8	
1	0	0	0	0	501	600	0	509	39	8	
2	0	0	0	0	496	587	0	530	39	8	
3	0	0	0	0	492	583	0	531	39	8	
4	0	0	0	0	507	580	0	524	39	10	
5	0	0	0	0	512	572	0	516	39	8	
6	0	0	0	0	507	565	0	511	39	8	
7	0	0	0	0	498	569	0	502	39	8	
8	0	0	0	0	506	578	0	495	39	8	
9	0	0	0	0	505	584	0	485	39	8	
10	0	0	0	0	504	589	0	481	39	8	
11	0	0	0	0	508	592	0	485	39	8	
12	0	0	0	0	511	591	0	494	39	9	
13	0	0	0	0	504	589	0	521	39	8	
14	0	0	0	0	498	586	0	532	39	8	
15	0	0	0	0	505	588	0	548	39	8	
0	0	0	0	0	503	591	0	557	39	8	
1	0	0	0	0	504	589	0	552	39	8	
2	0	0	0	0	502	583	0	547	39	8	
3	0	0	0	0	494	579	0	534	39	8	
4	0	0	0	0	499	578	0	521	39	8	
5	0	0	0	0	507	583	0	515	39	10	
6	0	0	0	0	507	585	0	508	39	8	
7	0	0	0	0	506	584	0	503	39	8	
8	0	0	0	0	502	586	0	502	39	8	
9	0	0	0	0	511	583	0	500	39	8	
10	0	0	0	0	505	582	0	502	39	8	
11	0	0	0	0	507	582	0	500	39	8	
12	0	0	0	0	511	581	0	506	39	8	
13	0	0	0	0	497	584	0	529	39	10	
14	0	0	0	0	497	584	0	542	39	8	
15	0	0	0	0	496	583	0	541	39	8	
0	0	0	0	0	496	581	0	541	39	8	
1	0	0	0	0	498	579	0	555	39	8	
2	0	0	0	0	511	578	0	554	39	8	
3	0	0	0	0	510	568	0	543	39	8	
4	0	0	0	0	497	561	0	533	39	8	
5	0	0	0	0	495	556	0	524	39	9	
6	0	0	0	0	503	550	0	515	39	8	
7	0	0	0	0	506	549	0	512	38	8	
8	0	0	0	0	512	552	0	508	39	8	
9	0	0	0	0	510	560	0	520	38	8	
10	0	0	0	0	505	568	0	543	38	8	
11	0	0	0	0	497	574	0	548	38	8	
12	0	0	0	0	507	582	0	544	38	8	
13	0	0	0	0	512	582	0	543	38	8	
14	0	0	0	0	497	579	0	536	38	10	
15	0	0	0	0	504	571	0	536	38	8	
0	0	0	0	0	504	553	0	554	38	8	
1	0	0	0	0	503	538	0	556	38	8	
2	0	0	0	0	499	523	0	567	38	8	
3	0	0	0	0	500	517	0	575	38	8	
4	0	0	0	0	499	519	0	563	38	8	
5	0	0	0	0	495	527	0	551	38	8	
6	0	0	0	0	497	532	0	557	38	10	
7	0	0	0	0	512	530	0	555	38	8	
8	0	0	0	0	499	519	0	540	38	8	
9	0	0	0	0	508	509	0	527	38	8	
10	0	0	0	0	512	500	0	517	38	8	
11	0	0	0	0	507	496	0	512	38	8	
12	0	0	0	0	514	491	0	505	38	8	
13	0	0	0	0	519	484	0	502	38	8	
14	0	0	0	0	503	483	0	497	39	9	
15	0	0	0	0	505	479	0	515	39	8	
0	0	0	0	0	496	475	0	495	39	8	
1	0	0	0	0	493	480	0	511	39	8	
2	0	0	0	0	495	487	0	531	39	8	
3	0	0	0	0	503	490	0	531	39	8	
4	0	0	0	0	503	496	0	527	39	8	
5	0	0	0	0	494	504	0	518	39	8	
6	0	0	0	0	498	504	0	509	39	8	
7	0	0	0	0	511	499	0	515	39	10	
8	0	0	0	0	502	493	0	526	39	8	
9	0	0	0	0	499	492	0	523	39	8	
10	0	0	0	0	502	492	0	515	39	8	
11	0	0	0	0	513	484	0	518	39	8	
12	0	0	0	0	501	475	0	514	39	8	
13	0	0	0	0	514	456	0	508	39	8	
14	0	0	0	0	507	439	0	504	39	8	
15	0	0	0	0	505	429	0	499	39	10	
0	0	0	0	0	505	423	0	495	39	8	
1	0	0	0	0	493	423	0	496	39	8	
2	0	0	0	0	502	420	0	504	39	8	
3	0	0	0	0	505	425	0	523	39	8	
4	0	0	0	0	507	433	0	533	39	8	
5	0	0	0	0	507	442	0	528	39	8	
6	0	0	0	0	501	452	0	520	39	8	
7	0	0	0	0	496	458	0	512	39	8	
8	0	0	0	0	504	460	0	508	39	8	
9	0	0	0	0	500	459	0	524	39	8	
10	0	0	0	0	503	455	0	529	39	8	
11	0	0	0	0	506	449	0	524	39	8	
12	0	0	0	0	510	445	0	516	39	8	
13	0	0	0	0	502	443	0	507	39	8	
14	0	0	0	0	518	445	0	500	39	8	
15	0	0	0	0	514	448	0	494	39	8	
0	0	0	0	0	501	452	0	504	39	10	
1	0	0	0	0	503	458	0	514	39	8	
2	0	0	0	0	495	463	0	514	39	8	
3	0	0	0	0	497	463	0	508	39	8	
4	0	0	0	0	503	459	0	499	39	8	
5	0	0	0	0	500	457	0	497	39	8	
6	0	0	0	0	491	460	0	491	39	8	
7	0	0	0	0	498	467	0	490	39	8	
8	0	0	0	0	496	474	0	486	39	10	
9	0	0	0	0	508	483	0	501	39	8	
10	0	0	0	0	509	491	0	519	39	8	
11	0	0	0	0	504	489	0	519	39	8	
12	0	0	0	0	501	485	0	517	39	8	
13	0	0	0	0	505	480	0	519	39	8	
14	0	0	0	0	511	467	0	513	39	8	
15	0	0	0	0	515	454	0	506	39	8	
0	0	0	0	0	511	442	0	503	39	9	
1	0	0	0	0	494	429	0	521	39	8	
2	0	0	0	0	504	423	0	526	39	8	
3	0	0	0	0	501	419	0	519	39	8	
4	0	0	0	0	504	417	0	511	39	8	
5	0	0	0	0	498	419	0	502	39	8	
6	0	0	0	0	503	424	0	498	39	8	
7	0	0	0	0	487	426	0	493	39	8	
8	0	0	0	0	492	431	0	487	39	8	
9	0	0	0	0	508	438	0	497	39	10	
10	0	0	0	0	502	445	0	519	39	8	
11	0	0	0	0	506	449	0	521	39	8	
12	0	0	0	0	508	448	0	512	38	8	
13	0	0	0	0	509	449	0	514	39	8	
14	0	0	0	0	503	452	0	495	39	8	
15	0	0	0	0	509	454	0	483	39	8	
0	0	0	0	0	509	454	0	477	39	8	
1	0	0	0	0	505	460	0	470	39	10	
2	0	0	0	0	502	465	0	464	39	8	
3	0	0	0	0	492	466	0	484	39	8	
4	0	0	0	0	502	463	0	469	39	8	
5	0	0	0	0	502	453	0	471	39	8	
6	0	0	0	0	505	444	0	472	39	8	
7	0	0	0	0	502	438	0	470	39	8	
8	0	0	0	0	493	440	0	470	39	8	
9	0	0	0	0	497	449	0	468	39	9	
10	0	0	0	0	499	458	0	471	39	8	
11	0	0	0	0	508	474	0	473	39	8	
12	0	0	0	0	508	483	0	475	39	8	
13	0	0	0	0	510	480	0	478	39	8	
14	0	0	0	0	508	486	0	479	39	8	
15	0	0	0	0	501	497	0	484	39	8	
0	0	0	0	0	516	494	0	477	39	8	
1	0	0	0	0	514	488	0	472	39	8	
2	0	0	0	0	504	481	0	475	39	10	
3	0	0	0	0	504	475	0	476	39	8	
4	0	0	0	0	502	481	0	485	39	8	
5	0	0	0	0	487	485	0	509	39	8	
6	0	0	0	0	505	483	0	525	39	8	
7	0	0	0	0	501	473	0	521	39	8	
8	0	0	0	0	493	460	0	508	40	8	
9	0	0	0	0	506	454	0	498	39	8	
10	0	0	0	0	493	455	0	487	39	10	
11	0	0	0	0	507	454	0	483	40	8	
12	0	0	0	0	499	451	0	484	39	8	
13	0	0	0	0	499	449	0	480	40	8	
14	0	0	0	0	515	451	0	481	40	8	
15	0	0	0	0	505	454	0	479	40	8	
0	0	0	0	0	502	462	0	475	40	8	
1	0	0	0	0	519	467	0	475	40	8	
2	0	0	0	0	514	465	0	474	40	9	
3	0	0	0	0	503	463	0	480	40	8	
4	0	0	0	0	501	463	0	480	40	8	
5	0	0	0	0	506	469	0	482	40	8	
6	0	0	0	0	494	480	0	484	40	8	
7	0	0	0	0	502	484	0	482	40	8	
8	0	0	0	0	506	484	0	480	40	8	
9	0	0	0	0	492	484	0	476	40	8	
10	0	0	0	0	497	486	0	472	40	8	
11	0	0	0	0	502	489	0	473	40	10	
12	0	0	0	0	507	480	0	473	40	8	
13	0	0	0	0	501	477	0	474	40	8	
14	0	0	0	0	505	478	0	476	40	8	
15	0	0	0	0	507	482	0	501	40	8	
0	0	0	0	0	504	487	0	512	40	8	
1	0	0	0	0	502	492	0	509	40	8	
2	0	0	0	0	509	499	0	505	40	8	
3	0	0	0	0	510	499	0	497	40	10	
4	0	0	0	0	505	496	0	491	40	8	
5	0	0	0	0	503	496	0	489	40	8	
6	0	0	0	0	505	494	0	486	40	8	
7	0	0	0	0	502	494	0	487	40	8	
8	0	0	0	0	501	495	0	480	40	8	
9	0	0	0	0	500	499	0	475	40	8	
10	0	0	0	0	492	503	0	478	40	8	
11	0	0	0	0	495	502	0	479	40	9	
12	0	0	0	0	506	497	0	487	40	8	
13	0	0	0	0	508	487	0	483	40	8	
14	0	0	0	0	503	481	0	484	40	8	
15	0	0	0	0	505	480	0	486	39	8	
0	0	0	0	0	502	480	0	480	40	8	
1	0	0	0	0	506	483	0	478	39	8	
2	0	0	0	0	516	479	0	479	39	8	
3	0	0	0	0	512	469	0	478	39	8	
4	0	0	0	0	502	466	0	483	39	10	
5	0	0	0	0	494	471	0	484	39	8	
6	0	0	0	0	498	475	0	488	39	8	
7	0	0	0	0	495	478	0	487	39	8	
8	0	0	0	0	503	486	0	485	39	8	
9	0	0	0	0	509	501	0	499	39	8	
10	0	0	0	0	495	508	0	521	39	8	
11	0	0	0	0	498	517	0	528	39	8	
12	0	0	0	0	502	534	0	524	39	10	
13	0	0	0	0	503	540	0	515	39	8	
14	0	0	0	0	512	536	0	508	39	8	
15	0	0	0	0	508	522	0	500	39	8	
0	0	0	0	0	505	499	0	497	39	8	
1	0	0	0	0	508	477	0	487	39	8	
2	0	0	0	0	504	457	0	485	39	8	
3	0	0	0	0	511	449	0	488	39	8	
4	0	0	0	0	511	460	0	490	39	8	
5	0	0	0	0	495	477	0	496	38	8	
6	0	0	0	0	497	481	0	497	38	8	
7	0	0	0	0	503	483	0	493	38	8	
8	0	0	0	0	498	492	0	491	39	8	
9	0	0	0	0	500	488	0	488	38	8	
10	0	0	0	0	500	483	0	493	38	8	
11	0	0	0	0	491	477	0	494	38	8	
12	0	0	0	0	499	475	0	495	38	8	
13	0	0	0	0	503	473	0	497	38	10	
14	0	0	0	0	502	467	0	490	38	8	
15	0	0	0	0	504	466	0	489	38	8	
0	0	0	0	0	511	473	0	481	38	8	
1	0	0	0	0	514	487	0	478	38	8	
2	0	0	0	0	509	503	0	494	38	8	
3	0	0	0	0	506	512	0	519	38	8	
4	0	0	0	0	515	513	0	531	38	8	
5	0	0	0	0	505	507	0	524	38	10	
6	0	0	0	0	500	504	0	517	38	8	
7	0	0	0	0	495	503	0	511	38	8	
8	0	0	0	0	500	498	0	502	38	8	
9	0	0	0	0	502	490	0	500	38	8	
10	0	0	0	0	508	483	0	496	38	8	
11	0	0	0	0	504	482	0	495	38	8	
12	0	0	0	0	500	485	0	495	38	8	
13	0	0	0	0	494	483	0	491	38	9	
14	0	0	0	0	500	477	0	490	38	8	
15	0	0	0	0	501	472	0	484	38	8	
0	0	0	0	0	508	466	0	480	39	8	
1	0	0	0	0	506	461	0	483	38	8	
2	0	0	0	0	505	459	0	483	38	8	
3	0	0	0	0	499	464	0	487	38	8	
4	0	0	0	0	517	464	0	487	38	8	
5	0	0	0	0	512	464	0	486	38	8	
6	0	0	0	0	504	475	0	485	38	10	
7	0	0	0	0	502	487	0	488	38	8	
8	0	0	0	0	495	490	0	515	39	8	
9	0	0	0	0	496	490	0	525	38	8	
10	0	0	0	0	504	492	0	544	38	8	
11	0	0	0	0	499	493	0	560	38	8	
12	0	0	0	0	499	489	0	565	38	7	
13	0	0	0	0	487	491	0	575	38	7	
14	0	0	0	0	500	491	0	570	38	9	
15	0	0	0	0	500	481	0	574	38	8	
0	0	0	0	0	502	476	0	573	38	8	
1	0	0	0	0	511	473	0	566	38	8	
2	0	0	0	0	508	473	0	575	38	8	
3	0	0	0	0	510	480	0	570	38	8	
4	0	0	0	0	507	487	0	575	38	8	
5	0	0	0	0	510	497	0	579	38	8	
6	0	0	0	0	513	507	0	574	38	8	
7	0	0	0	0	500	513	0	581	38	8	
8	0	0	0	0	496	504	0	573	38	8	
9	0	0	0	0	500	487	0	574	38	8	
10	0	0	0	0	505	472	0	578	38	8	
11	0	0	0	0	496	456	0	565	38	8	
12	0	0	0	0	503	448	0	547	38	8	
13	0	0	0	0	493	443	0	529	38	8	
14	0	0	0	0	499	435	0	536	38	8	
15	0	0	0	0	512	430	0	543	38	10	
0	0	0	0	0	510	426	0	545	38	8	
1	0	0	0	0	499	423	0	558	38	8	
2	0	0	0	0	516	418	0	555	38	8	
3	0	0	0	0	510	412	0	562	38	8	
4	0	0	0	0	499	410	0	566	38	8	
5	0	0	0	0	515	412	0	561	38	8	
6	0	0	0	0	505	412	0	569	38	8	
7	0	0	0	0	504	411	0	560	38	10	
8	0	0	0	0	501	413	0	562	38	8	
9	0	0	0	0	494	418	0	564	38	8	
10	0	0	0	0	500	417	0	561	38	8	
11	0	0	0	0	495	415	0	567	38	8	
12	0	0	0	0	502	409	0	559	38	8	
13	0	0	0	0	497	403	0	560	38	8	
14	0	0	0	0	502	399	0	560	38	8	
15	0	0	0	0	501	395	0	555	38	9	
0	0	0	0	0	504	387	0	564	38	8	
1	0	0	0	0	503	377	0	558	38	8	
2	0	0	0	0	505	371	0	559	38	8	
3	0	0	0	0	508	370	0	558	38	8	
4	0	0	0	0	504	370	0	552	38	8	
5	0	0	0	0	508	372	0	558	38	8	
6	0	0	0	0	508	375	0	551	38	8	
7	0	0	0	0	508	377	0	555	38	8	
8	0	0	0	0	502	376	0	560	38	10	
9	0	0	0	0	503	369	0	553	38	8	
10	0	0	0	0	499	365	0	560	38	8	
11	0	0	0	0	501	363	0	551	38	8	
12	0	0	0	0	503	367	0	534	38	8	
13	0	0	0	0	496	372	0	526	38	8	
14	0	0	0	0	504	367	0	517	38	8	
15	0	0	0	0	498	363	0	512	38	8	
0	0	0	0	0	496	367	0	525	38	9	
1	0	0	0	0	504	373	0	533	38	8	
2	0	0	0	0	505	382	0	528	38	8	
3	0	0	0	0	504	388	0	517	38	8	
4	0	0	0	0	510	395	0	508	38	8	
5	0	0	0	0	508	400	0	500	38	8	
6	0	0	0	0	505	403	0	494	38	8	
7	0	0	0	0	505	396	0	492	38	8	
8	0	0	0	0	508	387	0	489	38	8	
9	0	0	0	0	498	367	0	491	38	8	
10	0	0	0	0	496	339	0	510	38	8	
11	0	0	0	0	501	314	0	522	38	8	
12	0	0	0	0	501	294	0	519	38	8	
13	0	0	0	0	503	283	0	512	38	8	
14	0	0	0	0	501	281	0	505	38	8	
15	0	0	0	0	500	291	0	496	38	8	
0	0	0	0	0	495	305	0	507	38	8	
1	0	0	0	0	502	319	0	517	38	10	
2	0	0	0	0	505	336	0	523	38	8	
3	0	0	0	0	507	354	0	543	38	8	
4	0	0	0	0	512	355	0	546	38	8	
5	0	0	0	0	510	342	0	537	38	8	
6	0	0	0	0	501	337	0	536	38	8	
7	0	0	0	0	506	339	0	544	38	8	
8	0	0	0	0	504	331	0	539	38	8	
9	0	0	0	0	510	319	0	546	38	9	
10	0	0	0	0	503	302	0	546	38	8	
11	0	0	0	0	505	291	0	535	38	8	
12	0	0	0	0	503	291	0	528	38	8	
13	0	0	0	0	500	295	0	524	38	8	
14	0	0	0	0	495	300	0	515	38	8	
15	0	0	0	0	501	306	0	527	38	8	
0	0	0	0	0	495	311	0	538	38	8	
1	0	0	0	0	497	308	0	534	38	8	
2	0	0	0	0	504	315	0	525	38	8	
3	0	0	0	0	509	324	0	514	38	8	
4	0	0	0	0	504	329	0	500	38	8	
5	0	0	0	0	505	339	0	498	38	8	
6	0	0	0	0	509	350	0	493	39	8	
7	0	0	0	0	503	367	0	491	38	8	
8	0	0	0	0	514	370	0	487	39	7	
9	0	0	0	0	515	356	0	508	38	8	
10	0	0	0	0	505	346	0	525	39	10	
11	0	0	0	0	495	349	0	524	39	8	
12	0	0	0	0	501	365	0	519	38	8	
13	0	0	0	0	503	379	0	508	39	8	
14	0	0	0	0	503	384	0	499	39	8	
15	0	0	0	0	501	391	0	507	39	8	
0	0	0	0	0	500	402	0	525	39	7	
1	0	0	0	0	500	412	0	516	39	7	
2	0	0	0	0	498	419	0	507	39	9	
3	0	0	0	0	505	420	0	500	39	8	
4	0	0	0	0	500	424	0	500	39	8	
5	0	0	0	0	503	426	0	496	39	8	
6	0	0	0	0	505	427	0	496	39	8	
7	0	0	0	0	503	431	0	493	39	8	
8	0	0	0	0	515	435	0	492	39	7	
9	0	0	0	0	512	430	0	506	39	7	
10	0	0	0	0	506	407	0	529	39	8	
11	0	0	0	0	499	382	0	535	39	8	
12	0	0	0	0	496	362	0	529	39	8	
13	0	0	0	0	499	348	0	530	39	8	
14	0	0	0	0	502	338	0	525	39	8	
15	0	0	0	0	505	335	0	523	39	8	
0	0	0	0	0	501	327	0	540	39	8	
1	0	0	0	0	492	321	0	541	39	7	
2	0	0	0	0	504	304	0	531	39	7	
3	0	0	0	0	502	281	0	520	39	10	
4	0	0	0	0	503	261	0	511	39	8	
5	0	0	0	0	505	238	0	507	39	8	
6	0	0	0	0	507	213	0	502	39	8	
7	0	0	0	0	509	199	0	499	39	8	
8	0	0	0	0	500	196	0	510	39	8	
9	0	0	0	0	508	190	0	527	39	8	
10	0	0	0	0	514	177	0	530	39	8	
11	0	0	0	0	508	166	0	533	39	10	
12	0	0	0	0	499	162	0	518	39	8	
13	0	0	0	0	498	164	0	511	39	8	
14	0	0	0	0	501	167	0	504	39	8	
15	0	0	0	0	503	174	0	503	39	8	
0	0	0	0	0	500	183	0	499	39	8	
1	0	0	0	0	505	188	0	515	39	8	
2	0	0	0	0	494	193	0	534	39	7	
3	0	0	0	0	498	201	0	536	39	8	
4	0	0	0	0	501	207	0	529	39	8	
5	0	0	0	0	507	211	0	522	39	8	
6	0	0	0	0	505	213	0	512	39	8	
7	0	0	0	0	510	220	0	519	39	8	
8	0	0	0	0	504	225	0	531	39	8	
9	0	0	0	0	503	222	0	527	39	8	
10	0	0	0	0	505	214	0	520	39	7	
11	0	0	0	0	512	211	0	524	39	7	
12	0	0	0	0	501	214	0	521	39	9	
13	0	0	0	0	497	212	0	514	39	8	
14	0	0	0	0	500	214	0	510	39	8	
15	0	0	0	0	500	214	0	506	39	8	
0	0	0	0	0	509	210	0	502	39	8	
1	0	0	0	0	502	209	0	502	39	8	
2	0	0	0	0	497	210	0	504	39	7	
3	0	0	0	0	499	224	0	528	39	7	
4	0	0	0	0	498	239	0	537	39	9	
5	0	0	0	0	509	259	0	530	39	8	
6	0	0	0	0	509	287	0	521	39	8	
7	0	0	0	0	507	309	0	514	39	8	
8	0	0	0	0	504	326	0	510	39	8	
9	0	0	0	0	511	339	0	523	38	8	
10	0	0	0	0	499	351	0	530	38	8	
11	0	0	0	0	519	348	0	526	38	8	
12	0	0	0	0	511	349	0	516	38	8	
13	0	0	0	0	500	356	0	511	38	8	
14	0	0	0	0	492	359	0	513	38	8	
15	0	0	0	0	498	354	0	499	38	8	
0	0	0	0	0	502	355	0	504	38	8	
1	0	0	0	0	489	366	0	519	38	8	
2	0	0	0	0	507	384	0	521	38	8	
3	0	0	0	0	499	407	0	516	38	8	
4	0	0	0	0	497	423	0	507	38	8	
5	0	0	0	0	502	433	0	504	38	10	
6	0	0	0	0	507	425	0	498	38	8	
7	0	0	0	0	505	412	0	496	38	8	
8	0	0	0	0	508	403	0	493	38	8	
9	0	0	0	0	508	394	0	510	38	8	
10	0	0	0	0	506	384	0	528	38	8	
11	0	0	0	0	513	384	0	528	38	7	
12	0	0	0	0	509	387	0	526	38	7	
13	0	0	0	0	505	385	0	526	38	9	
14	0	0	0	0	507	380	0	519	38	8	
15	0	0	0	0	499	377	0	526	38	8	
0	0	0	0	0	497	383	0	542	38	8	
1	0	0	0	0	493	391	0	540	38	8	
2	0	0	0	0	504	394	0	531	38	8	
3	0	0	0	0	500	399	0	536	38	7	
4	0	0	0	0	498	408	0	515	38	7	
5	0	0	0	0	503	406	0	506	38	8	
6	0	0	0	0	499	401	0	504	38	8	
7	0	0	0	0	501	400	0	500	38	8	
8	0	0	0	0	503	404	0	497	38	8	
9	0	0	0	0	508	403	0	509	38	8	
10	0	0	0	0	499	399	0	536	38	8	
11	0	0	0	0	507	394	0	537	38	7	
12	0	0	0	0	511	396	0	529	38	7	
13	0	0	0	0	515	404	0	520	38	7	
14	0	0	0	0	500	408	0	513	38	10	
15	0	0	0	0	500	410	0	513	38	8	
0	0	0	0	0	502	415	0	526	38	8	
1	0	0	0	0	504	415	0	527	38	8	
2	0	0	0	0	500	415	0	519	38	8	
3	0	0	0	0	497	418	0	514	38	8	
4	0	0	0	0	493	418	0	508	38	7	
5	0	0	0	0	499	421	0	505	38	7	
6	0	0	0	0	496	420	0	503	38	9	
7	0	0	0	0	507	416	0	499	38	8	
8	0	0	0	0	509	416	0	502	38	8	
9	0	0	0	0	506	422	0	499	38	8	
10	0	0	0	0	517	428	0	505	38	8	
11	0	0	0	0	511	430	0	528	38	8	
12	0	0	0	0	506	424	0	541	38	7	
13	0	0	0	0	505	409	0	539	38	7	
14	0	0	0	0	509	396	0	540	38	8	
15	0	0	0	0	498	394	0	558	38	8	
0	0	0	0	0	497	391	0	559	39	8	
1	0	0	0	0	509	384	0	547	39	8	
2	0	0	0	0	496	379	0	535	39	8	
3	0	0	0	0	497	380	0	523	39	7	
4	0	0	0	0	499	376	0	515	39	7	
5	0	0	0	0	496	372	0	509	39	7	
6	0	0	0	0	508	375	0	502	39	7	
7	0	0	0	0	509	379	0	503	39	9	
8	0	0	0	0	504	384	0	506	39	7	
9	0	0	0	0	506	400	0	524	39	8	
10	0	0	0	0	501	419	0	528	39	7	
11	0	0	0	0	508	430	0	523	39	8	
12	0	0	0	0	508	437	0	517	39	7	
13	0	0	0	0	509	441	0	507	39	7	
14	0	0	0	0	507	442	0	503	39	7	
15	0	0	0	0	501	442	0	497	39	9	
0	0	0	0	0	499	444	0	492	39	8	
1	0	0	0	0	509	455	0	502	39	8	
2	0	0	0	0	498	462	0	524	39	8	
3	0	0	0	0	498	458	0	528	39	8	
4	0	0	0	0	504	451	0	521	39	8	
5	0	0	0	0	508	446	0	515	39	7	
6	0	0	0	0	499	450	0	510	39	7	
7	0	0	0	0	494	455	0	510	39	8	
8	0	0	0	0	496	450	0	524	39	8	
9	0	0	0	0	503	444	0	527	39	8	
10	0	0	0	0	504	444	0	519	39	8	
11	0	0	0	0	513	446	0	510	39	8	
12	0	0	0	0	506	440	0	499	39	8	
13	0	0	0	0	499	436	0	496	39	7	
14	0	0	0	0	515	423	0	488	39	7	
15	0	0	0	0	515	401	0	484	39	7	
0	0	0	0	0	502	394	0	483	39	9	
1	0	0	0	0	494	403	0	475	39	8	
2	0	0	0	0	496	414	0	473	39	8	
3	0	0	0	0	500	424	0	473	39	8	
4	0	0	0	0	507	439	0	475	39	8	
5	0	0	0	0	499	447	0	478	39	7	
6	0	0	0	0	495	451	0	477	39	7	
7	0	0	0	0	500	461	0	481	39	7	
8	0	0	0	0	502	470	0	474	39	9	
9	0	0	0	0	515	470	0	467	39	7	
10	0	0	0	0	509	472	0	472	39	8	
11	0	0	0	0	506	464	0	471	39	8	
12	0	0	0	0	508	455	0	474	39	8	
13	0	0	0	0	506	449	0	476	39	7	
14	0	0	0	0	513	444	0	476	39	7	
15	0	0	0	0	512	437	0	476	39	7	
0	0	0	0	0	506	432	0	471	39	8	
1	0	0	0	0	509	420	0	470	38	8	
2	0	0	0	0	494	407	0	491	38	8	
3	0	0	0	0	498	399	0	508	38	8	
4	0	0	0	0	499	395	0	508	38	8	
5	0	0	0	0	501	394	0	497	38	8	
6	0	0	0	0	497	397	0	493	38	7	
7	0	0	0	0	496	399	0	486	38	7	
8	0	0	0	0	499	405	0	482	38	7	
9	0	0	0	0	507	412	0	481	38	10	
10	0	0	0	0	503	421	0	478	38	8	
11	0	0	0	0	503	436	0	483	38	8	
12	0	0	0	0	502	448	0	480	38	8	
13	0	0	0	0	503	456	0	479	38	8	
14	0	0	0	0	508	459	0	481	38	8	
15	0	0	0	0	507	458	0	478	38	7	
0	0	0	0	0	512	455	0	478	38	7	
1	0	0	0	0	511	450	0	475	38	9	
2	0	0	0	0	509	452	0	475	38	7	
3	0	0	0	0	494	459	0	477	38	8	
4	0	0	0	0	501	468	0	478	38	8	
5	0	0	0	0	499	476	0	482	38	8	
6	0	0	0	0	501	477	0	483	38	7	
7	0	0	0	0	508	471	0	480	38	7	
8	0	0	0	0	487	477	0	479	38	7	
9	0	0	0	0	498	482	0	475	38	8	
10	0	0	0	0	503	486	0	475	38	8	
11	0	0	0	0	515	491	0	478	38	7	
12	0	0	0	0	510	497	0	500	38	7	
13	0	0	0	0	505	501	0	524	38	8	
14	0	0	0	0	503	497	0	527	38	7	
15	0	0	0	0	503	484	0	522	38	7	
0	0	0	0	0	503	471	0	507	38	7	
1	0	0	0	0	512	467	0	493	38	7	
2	0	0	0	0	507	462	0	490	38	9	
3	0	0	0	0	504	453	0	485	38	7	
4	0	0	0	0	505	447	0	486	38	8	
5	0	0	0	0	498	441	0	484	38	7	
6	0	0	0	0	504	438	0	483	38	7	
7	0	0	0	0	499	435	0	484	38	7	
8	0	0	0	0	498	438	0	478	38	7	
9	0	0	0	0	500	445	0	476	38	7	
10	0	0	0	0	499	457	0	475	38	9	
11	0	0	0	0	512	462	0	475	38	7	
12	0	0	0	0	503	459	0	479	38	8	
13	0	0	0	0	505	455	0	480	38	8	
14	0	0	0	0	505	456	0	482	38	8	
15	0	0	0	0	507	457	0	477	38	7	
0	0	0	0	0	501	461	0	475	39	7	
1	0	0	0	0	512	463	0	475	38	7	
2	0	0	0	0	509	459	0	473	39	8	
3	0	0	0	0	500	455	0	478	39	8	
4	0	0	0	0	498	452	0	478	38	7	
5	0	0	0	0	505	447	0	486	39	8	
6	0	0	0	0	495	445	0	480	39	8	
7	0	0	0	0	501	444	0	485	39	7	
8	0	0	0	0	497	443	0	510	39	7	
9	0	0	0	0	502	439	0	518	39	7	
10	0	0	0	0	495	439	0	532	39	7	
11	0	0	0	0	505	442	0	543	39	9	
12	0	0	0	0	509	445	0	555	39	7	
13	0	0	0	0	508	443	0	557	39	8	
14	0	0	0	0	507	437	0	552	39	7	
15	0	0	0	0	504	443	0	555	39	7	
0	0	0	0	0	504	454	0	556	39	7	
1	0	0	0	0	513	456	0	550	39	7	
2	0	0	0	0	509	460	0	556	39	7	
3	0	0	0	0	497	515	0	550	39	9	
4	0	0	0	0	503	579	0	532	39	7	
5	0	0	0	0	500	628	0	512	39	7	
6	0	0	0	0	507	665	0	504	39	8	
7	0	0	0	0	496	687	0	517	39	7	
8	0	0	0	0	506	699	0	513	39	7	
9	0	0	0	0	496	710	0	523	39	7	
10	0	0	0	0	499	640	0	534	39	7	
11	0	0	0	0	499	577	0	537	39	8	
12	0	0	0	0	497	529	0	548	39	8	
13	0	0	0	0	504	497	0	542	39	7	
14	0	0	0	0	508	479	0	545	39	7	
15	0	0	0	0	501	474	0	547	39	7	
0	0	0	0	0	510	469	0	542	39	7	
1	0	0	0	0	502	467	0	551	39	7	
2	0	0	0	0	513	471	0	548	39	7	
3	0	0	0	0	514	470	0	554	39	7	
4	0	0	0	0	509	459	0	553	39	9	
5	0	0	0	0	505	443	0	547	39	7	
6	0	0	0	0	504	428	0	542	39	7	
7	0	0	0	0	500	414	0	549	39	7	
8	0	0	0	0	502	407	0	549	39	7	
9	0	0	0	0	502	400	0	536	39	7	
10	0	0	0	0	496	381	0	519	39	7	
11	0	0	0	0	491	367	0	505	39	7	
12	0	0	0	0	496	364	0	495	39	9	
13	0	0	0	0	508	358	0	489	39	7	
14	0	0	0	0	499	343	0	485	39	7	
15	0	0	0	0	500	334	0	477	39	7	
0	0	0	0	0	512	332	0	481	39	7	
1	0	0	0	0	502	343	0	499	39	7	
2	0	0	0	0	511	363	0	510	39	7	
3	0	0	0	0	518	425	0	509	39	7	
4	0	0	0	0	513	488	0	501	39	8	
5	0	0	0	0	498	540	0	496	39	8	
6	0	0	0	0	509	584	0	487	39	7	
7	0	0	0	0	505	612	0	482	39	8	
8	0	0	0	0	496	634	0	491	39	8	
9	0	0	0	0	496	646	0	507	39	7	
10	0	0	0	0	508	652	0	509	39	7	
11	0	0	0	0	496	655	0	504	39	7	
12	0	0	0	0	499	615	0	508	39	7	
13	0	0	0	0	498	560	0	508	39	9	
14	0	0	0	0	500	518	0	495	39	7	
15	0	0	0	0	502	483	0	490	39	8	
0	0	0	0	0	506	448	0	485	39	8	
1	0	0	0	0	510	415	0	481	39	7	
2	0	0	0	0	510	390	0	495	39	7	
3	0	0	0	0	509	372	0	518	39	7	
4	0	0	0	0	512	353	0	524	39	7	
5	0	0	0	0	504	332	0	517	39	9	
6	0	0	0	0	500	317	0	508	39	7	
7	0	0	0	0	507	316	0	503	39	8	
8	0	0	0	0	500	325	0	503	39	8	
9	0	0	0	0	494	328	0	518	39	8	
10	0	0	0	0	499	328	0	520	39	7	
11	0	0	0	0	505	335	0	512	39	7	
12	0	0	0	0	492	372	0	507	39	7	
13	0	0	0	0	492	379	0	499	39	8	
14	0	0	0	0	505	384	0	495	39	8	
15	0	0	0	0	507	388	0	487	39	8	
0	0	0	0	0	513	387	0	489	39	8	
1	0	0	0	0	514	418	0	497	39	8	
2	0	0	0	0	512	459	0	515	39	7	
3	0	0	0	0	504	492	0	519	39	7	
4	0	0	0	0	510	496	0	513	39	7	
5	0	0	0	0	512	460	0	504	39	7	
6	0	0	0	0	495	437	0	499	39	9	
7	0	0	0	0	502	419	0	499	39	7	
8	0	0	0	0	499	407	0	513	39	8	
9	0	0	0	0	502	397	0	518	39	7	
10	0	0	0	0	496	386	0	512	39	8	
11	0	0	0	0	490	372	0	515	39	7	
12	0	0	0	0	487	363	0	514	39	7	
13	0	0	0	0	501	361	0	511	39	7	
14	0	0	0	0	498	392	0	504	39	9	
15	0	0	0	0	508	436	0	497	39	8	
0	0	0	0	0	510	469	0	496	39	8	
1	0	0	0	0	506	491	0	492	39	8	
2	0	0	0	0	507	512	0	498	39	8	
3	0	0	0	0	510	526	0	518	39	7	
4	0	0	0	0	505	544	0	543	39	7	
5	0	0	0	0	512	530	0	526	39	7	
6	0	0	0	0	518	499	0	517	39	8	
7	0	0	0	0	499	471	0	511	39	8	
8	0	0	0	0	501	443	0	505	39	8	
9	0	0	0	0	500	412	0	517	39	8	
10	0	0	0	0	497	391	0	533	39	8	
11	0	0	0	0	502	374	0	533	39	8	
12	0	0	0	0	503	363	0	525	39	7	
13	0	0	0	0	493	355	0	515	39	7	
14	0	0	0	0	501	362	0	506	39	7	
15	0	0	0	0	507	373	0	514	39	9	
0	0	0	0	0	504	375	0	524	40	7	
1	0	0	0	0	500	372	0	520	39	8	
2	0	0	0	0	512	360	0	513	39	8	
3	0	0	0	0	509	355	0	504	39	8	
4	0	0	0	0	508	364	0	500	39	7	
5	0	0	0	0	508	368	0	496	39	7	
6	0	0	0	0	510	365	0	495	39	7	
7	0	0	0	0	505	371	0	491	39	9	
8	0	0	0	0	501	387	0	489	39	7	
9	0	0	0	0	500	400	0	503	39	8	
10	0	0	0	0	496	408	0	524	39	8	
11	0	0	0	0	493	415	0	528	39	8	
12	0	0	0	0	500	423	0	524	39	7	
13	0	0	0	0	505	429	0	525	39	7	
14	0	0	0	0	499	457	0	518	39	7	
15	0	0	0	0	495	497	0	509	39	8	
0	0	0	0	0	502	540	0	507	39	8	
1	0	0	0	0	506	570	0	522	39	7	
2	0	0	0	0	501	587	0	529	39	7	
3	0	0	0	0	502	591	0	524	39	8	
4	0	0	0	0	505	589	0	515	39	7	
5	0	0	0	0	506	583	0	508	39	7	
6	0	0	0	0	519	543	0	503	39	7	
7	0	0	0	0	512	486	0	494	39	7	
8	0	0	0	0	502	447	0	502	39	9	
9	0	0	0	0	497	423	0	516	39	7	
10	0	0	0	0	496	405	0	519	39	7	
11	0	0	0	0	499	398	0	515	39	8	
12	0	0	0	0	501	394	0	512	39	7	
13	0	0	0	0	502	388	0	503	39	7	
14	0	0	0	0	499	385	0	497	39	7	
15	0	0	0	0	496	394	0	497	39	7	
0	0	0	0	0	496	413	0	495	39	9	
1	0	0	0	0	507	430	0	510	39	7	
2	0	0	0	0	500	451	0	529	39	8	
3	0	0	0	0	506	469	0	529	39	8	
4	0	0	0	0	507	481	0	523	39	7	
5	0	0	0	0	515	485	0	512	39	7	
6	0	0	0	0	506	473	0	503	39	7	
7	0	0	0	0	515	456	0	510	39	7	
8	0	0	0	0	513	439	0	522	39	8	
9	0	0	0	0	496	424	0	519	39	8	
10	0	0	0	0	496	421	0	513	39	7	
11	0	0	0	0	505	420	0	515	39	8	
12	0	0	0	0	501	428	0	514	39	8	
13	0	0	0	0	497	434	0	507	39	7	
14	0	0	0	0	501	435	0	502	39	7	
15	0	0	0	0	498	443	0	495	39	7	
0	0	0	0	0	500	451	0	491	39	7	
1	0	0	0	0	501	454	0	491	39	9	
2	0	0	0	0	497	450	0	497	39	8	
3	0	0	0	0	501	444	0	521	39	8	
4	0	0	0	0	506	439	0	531	39	8	
5	0	0	0	0	516	436	0	526	39	8	
6	0	0	0	0	509	440	0	519	39	7	
7	0	0	0	0	511	444	0	508	39	7	
8	0	0	0	0	514	444	0	510	39	7	
9	0	0	0	0	508	443	0	522	39	9	
10	0	0	0	0	506	448	0	529	39	8	
11	0	0	0	0	499	459	0	525	39	8	
12	0	0	0	0	493	463	0	516	39	8	
13	0	0	0	0	495	464	0	509	39	8	
14	0	0	0	0	506	472	0	503	39	8	
15	0	0	0	0	509	480	0	496	39	7	
0	0	0	0	0	489	484	0	504	39	7	
1	0	0	0	0	505	491	0	517	39	8	
2	0	0	0	0	500	500	0	519	39	8	
3	0	0	0	0	508	508	0	513	39	8	
4	0	0	0	0	506	502	0	504	39	8	
5	0	0	0	0	509	494	0	502	39	8	
6	0	0	0	0	505	494	0	495	39	7	
7	0	0	0	0	503	495	0	494	39	7	
8	0	0	0	0	513	497	0	490	39	7	
9	0	0	0	0	508	502	0	504	39	7	
10	0	0	0	0	503	505	0	524	39	9	
11	0	0	0	0	492	508	0	523	39	7	
12	0	0	0	0	495	516	0	519	39	8	
13	0	0	0	0	496	522	0	519	39	7	
14	0	0	0	0	503	518	0	510	39	7	
15	0	0	0	0	502	512	0	516	39	7	
0	0	0	0	0	499	502	0	529	39	7	
1	0	0	0	0	496	492	0	525	39	7	
2	0	0	0	0	495	483	0	515	39	9	
3	0	0	0	0	512	478	0	502	39	7	
4	0	0	0	0	507	470	0	497	39	7	
5	0	0	0	0	513	459	0	487	39	7	
6	0	0	0	0	500	452	0	486	39	7	
7	0	0	0	0	505	440	0	479	39	7	
8	0	0	0	0	505	429	0	476	39	7	
9	0	0	0	0	518	418	0	489	39	7	
10	0	0	0	0	505	407	0	512	39	8	
11	0	0	0	0	494	409	0	519	39	8	
12	0	0	0	0	511	427	0	514	39	7	
13	0	0	0	0	512	452	0	504	39	7	
14	0	0	0	0	496	475	0	498	39	8	
15	0	0	0	0	499	484	0	495	39	7	
0	0	0	0	0	500	485	0	509	39	7	
1	0	0	0	0	488	492	0	507	39	7	
2	0	0	0	0	496	513	0	500	39	7	
3	0	0	0	0	501	539	0	496	39	9	
4	0	0	0	0	506	550	0	488	39	7	
5	0	0	0	0	507	562	0	487	39	7	
6	0	0	0	0	505	581	0	482	39	8	
7	0	0	0	0	507	589	0	477	39	7	
8	0	0	0	0	504	579	0	477	39	7	
9	0	0	0	0	511	563	0	478	39	7	
10	0	0	0	0	513	548	0	500	39	7	
11	0	0	0	0	510	538	0	508	39	9	
12	0	0	0	0	503	534	0	504	39	7	
13	0	0	0	0	499	527	0	506	39	8	
14	0	0	0	0	491	521	0	501	39	8	
15	0	0	0	0	498	527	0	501	39	8	
0	0	0	0	0	504	537	0	516	39	7	
1	0	0	0	0	503	549	0	524	39	7	
2	0	0	0	0	497	565	0	518	39	7	
3	0	0	0	0	504	577	0	507	39	8	
4	0	0	0	0	504	581	0	496	38	8	
5	0	0	0	0	499	581	0	485	39	7	
6	0	0	0	0	509	579	0	476	39	8	
7	0	0	0	0	503	574	0	472	38	8	
8	0	0	0	0	503	569	0	472	39	7	
9	0	0	0	0	498	565	0	490	38	7	
10	0	0	0	0	510	568	0	497	38	7	
11	0	0	0	0	516	565	0	493	38	7	
12	0	0	0	0	509	561	0	492	38	9	
13	0	0	0	0	497	563	0	485	38	7	
14	0	0	0	0	502	560	0	483	38	7	
15	0	0	0	0	497	563	0	476	38	7	
0	0	0	0	0	494	570	0	469	39	7	
1	0	0	0	0	503	565	0	468	38	7	
2	0	0	0	0	502	555	0	462	38	7	
3	0	0	0	0	497	551	0	465	38	7	
4	0	0	0	0	496	543	0	464	38	9	
5	0	0	0	0	513	534	0	460	38	7	
6	0	0	0	0	499	523	0	462	38	7	
7	0	0	0	0	512	523	0	459	39	7	
8	0	0	0	0	508	531	0	460	39	7	
9	0	0	0	0	505	536	0	458	38	7	
10	0	0	0	0	505	538	0	456	38	7	
11	0	0	0	0	512	531	0	458	38	7	
12	0	0	0	0	513	523	0	455	38	8	
13	0	0	0	0	504	523	0	461	38	8	
14	0	0	0	0	496	528	0	463	38	7	
15	0	0	0	0	504	530	0	460	38	7	
0	0	0	0	0	503	532	0	459	39	8	
1	0	0	0	0	503	542	0	454	38	7	
2	0	0	0	0	500	560	0	460	38	7	
3	0	0	0	0	489	572	0	463	38	7	
4	0	0	0	0	497	584	0	464	38	7	
5	0	0	0	0	507	591	0	470	38	9	
6	0	0	0	0	505	588	0	472	38	7	
7	0	0	0	0	511	579	0	479	38	7	
8	0	0	0	0	496	568	0	499	39	7	
9	0	0	0	0	507	557	0	510	38	7	
10	0	0	0	0	501	549	0	510	38	7	
11	0	0	0	0	512	539	0	502	39	7	
12	0	0	0	0	518	526	0	510	38	7	
13	0	0	0	0	515	519	0	515	39	9	
14	0	0	0	0	499	518	0	526	39	7	
15	0	0	0	0	504	520	0	535	39	7	
0	0	0	0	0	495	526	0	546	39	7	
1	0	0	0	0	499	533	0	542	39	7	
2	0	0	0	0	506	541	0	551	39	7	
3	0	0	0	0	502	545	0	553	39	7	
4	0	0	0	0	503	556	0	540	39	7	
5	0	0	0	0	496	565	0	523	39	8	
6	0	0	0	0	508	571	0	514	39	8	
7	0	0	0	0	509	574	0	525	39	7	
8	0	0	0	0	505	583	0	533	39	7	
9	0	0	0	0	511	592	0	539	39	7	
10	0	0	0	0	506	603	0	550	39	7	
11	0	0	0	0	501	612	0	549	39	7	
12	0	0	0	0	511	611	0	556	38	7	
13	0	0	0	0	512	604	0	561	39	7	
14	0	0	0	0	505	601	0	555	39	9	
15	0	0	0	0	495	598	0	559	39	7	
0	0	0	0	0	494	593	0	550	39	7	
1	0	0	0	0	504	588	0	542	39	7	
2	0	0	0	0	506	580	0	527	38	7	
3	0	0	0	0	497	570	0	528	38	7	
4	0	0	0	0	496	560	0	504	38	7	
5	0	0	0	0	493	556	0	496	38	7	
6	0	0	0	0	503	557	0	489	38	9	
7	0	0	0	0	509	557	0	484	38	7	
8	0	0	0	0	507	552	0	484	39	7	
9	0	0	0	0	509	551	0	481	38	7	
10	0	0	0	0	506	560	0	481	38	7	
11	0	0	0	0	508	563	0	476	38	7	
12	0	0	0	0	513	568	0	475	38	7	
13	0	0	0	0	516	575	0	477	38	7	
14	0	0	0	0	505	572	0	476	38	8	
15	0	0	0	0	500	563	0	478	38	8	
0	0	0	0	0	501	569	0	473	38	7	
1	0	0	0	0	499	571	0	469	38	7	
2	0	0	0	0	498	568	0	471	38	8	
3	0	0	0	0	494	559	0	473	38	7	
4	0	0	0	0	498	559	0	478	38	7	
5	0	0	0	0	490	576	0	479	38	7	
6	0	0	0	0	503	592	0	480	38	7	
7	0	0	0	0	504	601	0	481	38	9	
8	0	0	0	0	504	602	0	478	38	7	
9	0	0	0	0	502	604	0	477	38	8	
10	0	0	0	0	507	601	0	476	38	8	
11	0	0	0	0	512	598	0	478	38	8	
12	0	0	0	0	507	591	0	483	38	7	
13	0	0	0	0	504	595	0	483	38	7	
14	0	0	0	0	509	600	0	490	38	7	
15	0	0	0	0	508	606	0	489	38	9	
0	0	0	0	0	504	613	0	485	38	7	
1	0	0	0	0	499	628	0	486	38	8	
2	0	0	0	0	500	651	0	485	38	8	
3	0	0	0	0	503	674	0	487	38	8	
4	0	0	0	0	496	691	0	488	38	8	
5	0	0	0	0	502	704	0	489	38	7	
6	0	0	0	0	492	706	0	503	38	7	
7	0	0	0	0	500	704	0	523	38	8	
8	0	0	0	0	504	707	0	525	38	8	
9	0	0	0	0	503	706	0	515	38	8	
10	0	0	0	0	504	702	0	505	38	8	
11	0	0	0	0	509	699	0	503	38	8	
12	0	0	0	0	513	702	0	496	38	8	
13	0	0	0	0	506	713	0	496	38	7	
14	0	0	0	0	509	726	0	493	38	7	
15	0	0	0	0	515	727	0	489	38	7	
0	0	0	0	0	499	719	0	486	38	9	
1	0	0	0	0	494	706	0	480	38	8	
2	0	0	0	0	499	692	0	481	38	8	
3	0	0	0	0	504	682	0	481	38	8	
4	0	0	0	0	496	673	0	482	38	8	
5	0	0	0	0	504	663	0	487	38	8	
6	0	0	0	0	498	654	0	486	39	7	
7	0	0	0	0	496	654	0	490	38	7	
8	0	0	0	0	497	639	0	484	39	9	
9	0	0	0	0	510	607	0	479	39	7	
10	0	0	0	0	506	582	0	481	39	8	
11	0	0	0	0	498	560	0	482	39	8	
12	0	0	0	0	508	540	0	486	38	8	
13	0	0	0	0	509	521	0	486	39	7	
14	0	0	0	0	504	505	0	484	39	7	
15	0	0	0	0	515	488	0	485	39	7	
0	0	0	0	0	504	469	0	482	39	8	
1	0	0	0	0	502	448	0	478	39	8	
2	0	0	0	0	502	434	0	475	39	7	
3	0	0	0	0	503	420	0	477	39	7	
4	0	0	0	0	504	415	0	482	39	8	
5	0	0	0	0	496	416	0	484	39	7	
6	0	0	0	0	500	428	0	489	39	7	
7	0	0	0	0	497	445	0	489	39	7	
8	0	0	0	0	496	464	0	509	39	7	
9	0	0	0	0	502	480	0	529	39	9	
10	0	0	0	0	500	485	0	530	39	7	
11	0	0	0	0	505	482	0	525	39	7	
12	0	0	0	0	509	481	0	518	39	7	
13	0	0	0	0	513	486	0	506	39	7	
14	0	0	0	0	505	493	0	503	39	7	
15	0	0	0	0	507	499	0	494	39	7	
0	0	0	0	0	509	499	0	491	39	7	
1	0	0	0	0	511	492	0	483	39	9	
2	0	0	0	0	505	491	0	481	39	7	
3	0	0	0	0	500	492	0	486	39	7	
4	0	0	0	0	500	489	0	487	39	7	
5	0	0	0	0	492	491	0	496	39	7	
6	0	0	0	0	496	495	0	521	39	7	
7	0	0	0	0	507	504	0	534	39	7	
8	0	0	0	0	496	511	0	543	39	7	
9	0	0	0	0	492	511	0	556	39	8	
10	0	0	0	0	510	511	0	556	39	8	
11	0	0	0	0	505	515	0	568	39	7	
12	0	0	0	0	513	524	0	571	39	7	
13	0	0	0	0	514	541	0	571	39	7	
14	0	0	0	0	500	563	0	577	39	7	
15	0	0	0	0	504	578	0	566	39	7	
0	0	0	0	0	507	590	0	570	39	7	
1	0	0	0	0	514	595	0	567	39	7	
2	0	0	0	0	509	593	0	568	39	9	
3	0	0	0	0	495	590	0	574	39	7	
4	0	0	0	0	507	601	0	567	39	8	
5	0	0	0	0	501	613	0	574	39	8	
6	0	0	0	0	506	626	0	570	39	7	
7	0	0	0	0	492	635	0	567	39	7	
8	0	0	0	0	500	639	0	569	39	7	
9	0	0	0	0	499	649	0	559	39	7	
10	0	0	0	0	499	659	0	563	39	9	
11	0	0	0	0	504	666	0	561	39	7	
12	0	0	0	0	499	676	0	560	39	8	
13	0	0	0	0	503	670	0	565	39	8	
14	0	0	0	0	507	653	0	558	39	8	
15	0	0	0	0	499	641	0	565	39	7	
0	0	0	0	0	513	625	0	567	39	7	
1	0	0	0	0	512	612	0	565	39	7	
2	0	0	0	0	508	592	0	572	39	8	
3	0	0	0	0	494	578	0	564	39	8	
4	0	0	0	0	499	578	0	570	38	7	
5	0	0	0	0	502	593	0	566	38	8	
6	0	0	0	0	503	609	0	563	38	8	
7	0	0	0	0	500	619	0	565	38	7	
8	0	0	0	0	505	625	0	554	38	7	
9	0	0	0	0	496	628	0	560	38	7	
10	0	0	0	0	499	633	0	559	38	7	
11	0	0	0	0	498	639	0	561	38	9	
12	0	0	0	0	511	640	0	563	38	7	
13	0	0	0	0	504	642	0	557	38	8	
14	0	0	0	0	509	644	0	561	38	8	
15	0	0	0	0	516	648	0	556	38	7	
0	0	0	0	0	504	658	0	556	38	7	
1	0	0	0	0	506	664	0	556	38	7	
2	0	0	0	0	508	658	0	548	38	7	
3	0	0	0	0	511	646	0	542	38	9	
4	0	0	0	0	511	625	0	525	38	7	
5	0	0	0	0	500	617	0	513	38	8	
6	0	0	0	0	498	612	0	500	38	8	
7	0	0	0	0	497	606	0	493	38	8	
8	0	0	0	0	506	598	0	486	38	7	
9	0	0	0	0	501	598	0	481	38	7	
10	0	0	0	0	494	610	0	494	38	7	
11	0	0	0	0	493	635	0	515	38	8	
12	0	0	0	0	493	659	0	520	38	8	
13	0	0	0	0	508	670	0	515	38	7	
14	0	0	0	0	514	665	0	504	38	8	
15	0	0	0	0	513	666	0	499	38	8	
0	0	0	0	0	500	668	0	493	38	7	
1	0	0	0	0	501	657	0	496	38	7	
2	0	0	0	0	515	641	0	513	38	7	
3	0	0	0	0	517	628	0	520	38	7	
4	0	0	0	0	501	616	0	515	38	9	
5	0	0	0	0	504	610	0	506	38	7	
6	0	0	0	0	496	607	0	501	38	7	
7	0	0	0	0	496	610	0	496	38	7	
8	0	0	0	0	505	613	0	506	38	7	
9	0	0	0	0	497	621	0	520	38	7	
10	0	0	0	0	493	633	0	518	38	7	
11	0	0	0	0	493	655	0	513	38	7	
12	0	0	0	0	491	667	0	515	38	9	
13	0	0	0	0	512	671	0	508	38	7	
14	0	0	0	0	508	674	0	501	38	7	
15	0	0	0	0	503	676	0	494	38	7	
0	0	0	0	0	508	678	0	490	38	7	
1	0	0	0	0	504	674	0	488	38	7	
2	0	0	0	0	500	668	0	504	38	7	
3	0	0	0	0	520	660	0	520	38	7	
4	0	0	0	0	506	652	0	519	38	8	
5	0	0	0	0	505	641	0	515	38	8	
6	0	0	0	0	500	627	0	505	38	7	
7	0	0	0	0	510	619	0	497	38	7	
8	0	0	0	0	492	619	0	505	38	7	
9	0	0	0	0	490	624	0	517	38	7	
10	0	0	0	0	504	633	0	518	38	7	
11	0	0	0	0	496	641	0	510	38	7	
12	0	0	0	0	499	645	0	500	38	7	
13	0	0	0	0	500	649	0	497	38	9	
14	0	0	0	0	505	646	0	491	38	7	
15	0	0	0	0	509	640	0	491	38	7	
0	0	0	0	0	508	634	0	487	38	7	
1	0	0	0	0	504	627	0	502	38	7	
2	0	0	0	0	507	625	0	522	38	7	
3	0	0	0	0	505	619	0	525	38	7	
4	0	0	0	0	513	601	0	521	38	7	
5	0	0	0	0	514	583	0	516	38	9	
6	0	0	0	0	511	578	0	508	38	7	
7	0	0	0	0	491	571	0	515	38	7	
8	0	0	0	0	495	571	0	526	38	7	
9	0	0	0	0	502	579	0	520	38	7	
10	0	0	0	0	502	582	0	513	38	7	
11	0	0	0	0	508	584	0	516	38	7	
12	0	0	0	0	489	597	0	515	38	7	
13	0	0	0	0	497	607	0	507	38	8	
14	0	0	0	0	498	612	0	503	38	7	
15	0	0	0	0	504	611	0	497	38	7	
0	0	0	0	0	512	601	0	492	38	7	
1	0	0	0	0	507	601	0	492	38	7	
2	0	0	0	0	503	610	0	495	38	7	
3	0	0	0	0	504	623	0	519	38	7	
4	0	0	0	0	511	628	0	528	38	7	
5	0	0	0	0	515	625	0	521	38	7	
6	0	0	0	0	502	623	0	512	38	9	
7	0	0	0	0	500	615	0	501	38	7	
8	0	0	0	0	497	608	0	497	39	7	
9	0	0	0	0	497	601	0	492	38	7	
10	0	0	0	0	501	595	0	507	38	7	
11	0	0	0	0	506	600	0	520	39	7	
12	0	0	0	0	501	609	0	527	38	7	
13	0	0	0	0	489	615	0	544	38	7	
14	0	0	0	0	498	620	0	542	39	9	
15	0	0	0	0	502	628	0	547	39	7	
0	0	0	0	0	504	637	0	550	39	7	
1	0	0	0	0	507	628	0	536	39	7	
2	0	0	0	0	510	615	0	521	39	7	
3	0	0	0	0	504	595	0	508	39	7	
4	0	0	0	0	510	582	0	496	38	7	
5	0	0	0	0	513	572	0	491	39	7	
6	0	0	0	0	510	566	0	484	39	8	
7	0	0	0	0	500	565	0	486	39	8	
8	0	0	0	0	500	571	0	482	39	7	
9	0	0	0	0	495	588	0	496	39	7	
10	0	0	0	0	502	606	0	515	39	7	
11	0	0	0	0	506	617	0	518	39	7	
12	0	0	0	0	504	628	0	512	38	7	
13	0	0	0	0	493	651	0	514	39	7	
14	0	0	0	0	503	676	0	508	39	7	
15	0	0	0	0	504	689	0	513	39	9	
0	0	0	0	0	502	691	0	527	39	7	
1	0	0	0	0	506	692	0	534	38	7	
2	0	0	0	0	504	687	0	515	39	7	
3	0	0	0	0	509	683	0	502	38	7	
4	0	0	0	0	511	685	0	497	38	7	
5	0	0	0	0	497	688	0	490	38	7	
6	0	0	0	0	510	688	0	489	38	7	
7	0	0	0	0	514	686	0	483	38	9	
8	0	0	0	0	505	675	0	480	39	7	
9	0	0	0	0	502	659	0	492	38	7	
10	0	0	0	0	496	639	0	516	38	7	
11	0	0	0	0	493	627	0	522	38	7	
12	0	0	0	0	502	623	0	515	38	7	
13	0	0	0	0	501	624	0	507	38	7	
14	0	0	0	0	492	637	0	500	38	7	
15	0	0	0	0	497	650	0	502	38	8	
0	0	0	0	0	501	672	0	518	38	8	
1	0	0	0	0	515	692	0	518	38	7	
2	0	0	0	0	513	697	0	510	38	7	
3	0	0	0	0	510	691	0	505	38	7	
4	0	0	0	0	503	680	0	498	38	7	
5	0	0	0	0	502	670	0	502	38	7	
6	0	0	0	0	512	654	0	492	38	7	
7	0	0	0	0	513	634	0	487	38	7	
8	0	0	0	0	504	622	0	489	38	9	
9	0	0	0	0	499	619	0	494	38	7	
10	0	0	0	0	496	617	0	518	38	7	
11	0	0	0	0	498	611	0	525	38	7	
12	0	0	0	0	499	601	0	521	38	7	
13	0	0	0	0	504	591	0	521	38	7	
14	0	0	0	0	505	589	0	517	38	7	
15	0	0	0	0	499	590	0	515	38	7	
0	0	0	0	0	496	584	0	529	38	9	
1	0	0	0	0	511	587	0	537	38	7	
2	0	0	0	0	501	586	0	531	38	7	
3	0	0	0	0	506	586	0	520	38	7	
4	0	0	0	0	516	592	0	508	38	7	
5	0	0	0	0	501	598	0	498	38	7	
6	0	0	0	0	497	605	0	487	38	7	
7	0	0	0	0	508	611	0	486	38	7	
8	0	0	0	0	513	616	0	487	38	8	
9	0	0	0	0	497	624	0	505	38	8	
10	0	0	0	0	502	626	0	513	38	7	
11	0	0	0	0	504	618	0	508	38	7	
12	0	0	0	0	502	605	0	503	38	7	
13	0	0	0	0	502	577	0	495	38	7	
14	0	0	0	0	501	552	0	492	38	7	
15	0	0	0	0	491	539	0	486	38	7	
0	0	0	0	0	500	530	0	482	38	7	
1	0	0	0	0	499	520	0	496	38	9	
2	0	0	0	0	502	521	0	514	38	7	
3	0	0	0	0	499	531	0	519	38	7	
4	0	0	0	0	505	550	0	512	38	7	
5	0	0	0	0	509	563	0	501	38	7	
6	0	0	0	0	514	568	0	496	38	7	
7	0	0	0	0	513	563	0	495	38	7	
8	0	0	0	0	513	554	0	512	38	7	
9	0	0	0	0	511	545	0	514	38	9	
10	0	0	0	0	501	546	0	508	38	7	
11	0	0	0	0	496	548	0	512	38	7	
12	0	0	0	0	502	543	0	512	38	7	
13	0	0	0	0	496	539	0	509	38	7	
14	0	0	0	0	498	535	0	503	38	7	
15	0	0	0	0	506	536	0	496	38	7	
0	0	0	0	0	497	541	0	495	39	7	
1	0	0	0	0	493	540	0	487	39	8	
2	0	0	0	0	504	538	0	492	38	8	
3	0	0	0	0	507	539	0	511	38	7	
4	0	0	0	0	512	534	0	519	38	7	
5	0	0	0	0	509	526	0	517	39	7	
6	0	0	0	0	502	515	0	510	39	7	
7	0	0	0	0	496	505	0	503	39	7	
8	0	0	0	0	510	493	0	496	39	7	
9	0	0	0	0	509	474	0	509	39	7	
10	0	0	0	0	511	452	0	526	39	9	
11	0	0	0	0	500	449	0	524	39	7	
12	0	0	0	0	498	457	0	517	39	7	
13	0	0	0	0	503	467	0	506	39	8	
14	0	0	0	0	501	476	0	497	39	7	
15	0	0	0	0	497	476	0	504	39	7	
0	0	0	0	0	504	474	0	516	39	7	
1	0	0	0	0	495	485	0	513	39	7	
2	0	0	0	0	495	500	0	504	39	9	
3	0	0	0	0	507	497	0	498	39	7	
4	0	0	0	0	505	481	0	494	39	7	
5	0	0	0	0	506	467	0	488	39	7	
6	0	0	0	0	501	466	0	488	39	7	
7	0	0	0	0	511	472	0	483	39	7	
8	0	0	0	0	507	490	0	480	39	7	
9	0	0	0	0	517	500	0	493	39	7	
10	0	0	0	0	505	508	0	515	39	8	
11	0	0	0	0	501	519	0	524	39	8	
12	0	0	0	0	496	524	0	542	39	7	
13	0	0	0	0	504	517	0	551	39	7	
14	0	0	0	0	503	500	0	551	39	7	
15	0	0	0	0	499	484	0	555	39	7	
0	0	0	0	0	502	468	0	542	39	7	
1	0	0	0	0	498	465	0	533	39	7	
2	0	0	0	0	495	463	0	531	39	7	
3	0	0	0	0	497	455	0	520	39	9	
4	0	0	0	0	505	455	0	507	39	7	
5	0	0	0	0	510	453	0	499	39	7	
6	0	0	0	0	506	444	0	502	39	7	
7	0	0	0	0	509	447	0	482	39	7	
8	0	0	0	0	507	452	0	481	39	7	
9	0	0	0	0	500	454	0	476	39	7	
10	0	0	0	0	519	447	0	478	39	7	
11	0	0	0	0	515	442	0	475	39	9	
12	0	0	0	0	500	448	0	492	39	7	
13	0	0	0	0	498	463	0	510	39	7	
14	0	0	0	0	498	476	0	513	39	7	
15	0	0	0	0	498	481	0	510	39	7	
0	0	0	0	0	495	481	0	523	39	7	
1	0	0	0	0	511	481	0	528	39	7	
2	0	0	0	0	496	486	0	522	39	7	
3	0	0	0	0	494	492	0	512	39	7	
4	0	0	0	0	499	496	0	505	39	7	
5	0	0	0	0	504	504	0	496	39	7	
6	0	0	0	0	508	515	0	490	39	7	
7	0	0	0	0	505	523	0	489	39	7	
8	0	0	0	0	508	508	0	486	39	7	
9	0	0	0	0	504	492	0	488	39	7	
10	0	0	0	0	512	481	0	508	39	7	
11	0	0	0	0	511	470	0	519	39	7	
12	0	0	0	0	508	463	0	513	39	9	
13	0	0	0	0	502	460	0	513	39	7	
14	0	0	0	0	497	467	0	514	39	7	
15	0	0	0	0	504	482	0	508	39	7	
0	0	0	0	0	499	501	0	518	39	7	
1	0	0	0	0	500	519	0	548	39	7	
2	0	0	0	0	499	536	0	529	39	7	
3	0	0	0	0	493	543	0	517	39	7	
4	0	0	0	0	493	544	0	507	39	9	
5	0	0	0	0	502	531	0	497	39	7	
6	0	0	0	0	508	524	0	492	39	7	
7	0	0	0	0	509	534	0	487	39	7	
8	0	0	0	0	509	535	0	492	39	7	
9	0	0	0	0	503	525	0	510	39	7	
10	0	0	0	0	505	515	0	520	39	7	
11	0	0	0	0	519	499	0	531	39	7	
12	0	0	0	0	511	476	0	547	39	8	
13	0	0	0	0	511	455	0	543	39	7	
14	0	0	0	0	496	438	0	527	39	7	
15	0	0	0	0	498	430	0	512	39	7	
0	0	0	0	0	500	429	0	510	39	7	
1	0	0	0	0	499	435	0	521	39	7	
2	0	0	0	0	502	448	0	520	39	7	
3	0	0	0	0	499	459	0	514	39	7	
4	0	0	0	0	498	477	0	506	39	7	
5	0	0	0	0	502	500	0	503	39	9	
6	0	0	0	0	506	513	0	498	39	7	
7	0	0	0	0	501	527	0	496	39	7	
8	0	0	0	0	498	536	0	491	39	7	
9	0	0	0	0	505	537	0	486	39	7	
10	0	0	0	0	508	536	0	487	39	7	
11	0	0	0	0	504	537	0	483	39	7	
12	0	0	0	0	515	528	0	485	39	7	
13	0	0	0	0	511	517	0	485	39	9	
14	0	0	0	0	505	510	0	480	39	7	
15	0	0	0	0	496	508	0	481	39	7	
0	0	0	0	0	497	508	0	476	39	7	
1	0	0	0	0	500	495	0	475	39	7	
2	0	0	0	0	500	482	0	473	39	7	
3	0	0	0	0	499	464	0	472	39	7	
4	0	0	0	0	488	451	0	477	39	7	
5	0	0	0	0	503	433	0	477	39	8	
6	0	0	0	0	504	434	0	482	39	7	
7	0	0	0	0	502	442	0	482	39	7	
8	0	0	0	0	513	460	0	481	39	7	
9	0	0	0	0	507	477	0	479	39	7	
10	0	0	0	0	508	496	0	476	39	7	
11	0	0	0	0	508	511	0	478	39	7	
12	0	0	0	0	513	518	0	475	39	7	
13	0	0	0	0	515	519	0	474	39	7	
14	0	0	0	0	508	521	0	476	39	9	
15	0	0	0	0	496	525	0	473	39	7	
0	0	0	0	0	505	533	0	472	39	7	
1	0	0	0	0	502	536	0	469	39	7	
2	0	0	0	0	507	541	0	474	39	7	
3	0	0	0	0	500	541	0	472	39	7	
4	0	0	0	0	502	537	0	471	39	7	
5	0	0	0	0	488	543	0	473	39	7	
6	0	0	0	0	494	548	0	476	39	9	
7	0	0	0	0	504	549	0	494	39	7	
8	0	0	0	0	507	550	0	512	39	7	
9	0	0	0	0	504	547	0	512	39	7	
10	0	0	0	0	502	536	0	509	39	7	
11	0	0	0	0	509	531	0	502	39	7	
12	0	0	0	0	512	527	0	494	39	7	
13	0	0	0	0	512	510	0	492	39	7	
14	0	0	0	0	512	494	0	486	39	8	
15	0	0	0	0	501	484	0	486	39	8	
0	0	0	0	0	499	487	0	481	39	7	
1	0	0	0	0	508	496	0	473	39	7	
2	0	0	0	0	502	496	0	476	39	8	
3	0	0	0	0	502	489	0	479	39	7	
4	0	0	0	0	500	478	0	483	39	7	
5	0	0	0	0	497	467	0	483	39	7	
6	0	0	0	0	494	463	0	485	39	7	
7	0	0	0	0	495	464	0	487	39	9	
8	0	0	0	0	508	464	0	481	39	7	
9	0	0	0	0	505	463	0	480	39	7	
10	0	0	0	0	513	468	0	477	39	7	
11	0	0	0	0	508	472	0	476	39	7	
12	0	0	0	0	498	477	0	481	38	7	
13	0	0	0	0	500	499	0	483	39	7	
14	0	0	0	0	509	512	0	487	39	7	
15	0	0	0	0	508	520	0	487	39	9	
0	0	0	0	0	505	524	0	507	39	7	
1	0	0	0	0	508	523	0	524	39	7	
2	0	0	0	0	493	518	0	526	39	7	
3	0	0	0	0	497	509	0	537	39	7	
4	0	0	0	0	502	499	0	513	39	7	
5	0	0	0	0	506	492	0	504	39	7	
6	0	0	0	0	498	489	0	501	39	7	
7	0	0	0	0	496	484	0	496	39	7	
8	0	0	0	0	504	476	0	499	39	8	
9	0	0	0	0	506	467	0	509	39	7	
10	0	0	0	0	505	467	0	493	39	7	
11	0	0	0	0	504	470	0	494	39	7	
12	0	0	0	0	508	468	0	494	39	7	
13	0	0	0	0	503	463	0	497	39	7	
14	0	0	0	0	508	453	0	496	39	7	
15	0	0	0	0	514	443	0	494	39	7	
0	0	0	0	0	502	436	0	490	39	9	
1	0	0	0	0	500	442	0	485	39	7	
2	0	0	0	0	496	464	0	488	39	7	
3	0	0	0	0	499	491	0	489	39	7	
4	0	0	0	0	502	510	0	491	39	7	
5	0	0	0	0	507	525	0	497	39	7	
6	0	0	0	0	493	540	0	496	39	7	
7	0	0	0	0	493	554	0	500	39	7	
8	0	0	0	0	499	558	0	494	39	9	
9	0	0	0	0	510	550	0	492	39	7	
10	0	0	0	0	509	548	0	506	39	7	
11	0	0	0	0	506	549	0	532	39	7	
12	0	0	0	0	513	552	0	543	39	7	
13	0	0	0	0	497	552	0	536	39	7	
14	0	0	0	0	508	547	0	527	39	7	
15	0	0	0	0	520	530	0	517	39	7	
0	0	0	0	0	512	513	0	504	39	8	
1	0	0	0	0	504	523	0	497	39	7	
2	0	0	0	0	494	532	0	490	39	7	
3	0	0	0	0	500	537	0	487	39	7	
4	0	0	0	0	497	534	0	490	39	7	
5	0	0	0	0	496	532	0	488	39	7	
6	0	0	0	0	502	535	0	496	39	7	
7	0	0	0	0	501	535	0	518	39	7	
8	0	0	0	0	499	534	0	527	39	7	
9	0	0	0	0	502	536	0	536	39	9	
10	0	0	0	0	509	530	0	553	39	7	
11	0	0	0	0	499	525	0	555	39	7	
12	0	0	0	0	502	508	0	566	39	7	
13	0	0	0	0	512	481	0	571	39	7	
14	0	0	0	0	507	463	0	574	39	7	
15	0	0	0	0	510	475	0	581	39	7	
0	0	0	0	0	511	495	0	572	39	7	
1	0	0	0	0	506	505	0	577	39	9	
2	0	0	0	0	511	502	0	579	39	7	
3	0	0	0	0	498	508	0	575	39	7	
4	0	0	0	0	495	521	0	580	39	7	
5	0	0	0	0	499	530	0	571	39	7	
6	0	0	0	0	498	542	0	576	39	7	
7	0	0	0	0	505	558	0	567	39	7	
8	0	0	0	0	491	567	0	562	39	7	
9	0	0	0	0	483	571	0	569	39	7	
10	0	0	0	0	512	568	0	567	39	8	
11	0	0	0	0	508	560	0	574	39	7	
12	0	0	0	0	507	549	0	571	39	7	
13	0	0	0	0	511	541	0	553	39	7	
14	0	0	0	0	511	541	0	544	39	7	
15	0	0	0	0	508	547	0	555	39	7	
0	0	0	0	0	513	550	0	551	39	7	
1	0	0	0	0	515	542	0	558	39	7	
2	0	0	0	0	507	526	0	568	39	9	
3	0	0	0	0	501	510	0	566	39	7	
4	0	0	0	0	495	488	0	574	38	7	
5	0	0	0	0	499	470	0	568	38	7	
6	0	0	0	0	493	456	0	571	38	7	
7	0	0	0	0	502	457	0	572	38	7	
8	0	0	0	0	507	463	0	584	39	7	
9	0	0	0	0	490	477	0	576	38	7	
10	0	0	0	0	499	513	0	569	38	9	
11	0	0	0	0	507	536	0	570	38	7	
12	0	0	0	0	508	539	0	572	38	7	
13	0	0	0	0	506	536	0	559	38	7	
14	0	0	0	0	506	537	0	544	38	8	
15	0	0	0	0	504	541	0	553	38	7	
0	0	0	0	0	509	548	0	551	39	7	
1	0	0	0	0	512	550	0	543	38	7	
2	0	0	0	0	513	557	0	527	38	8	
3	0	0	0	0	505	567	0	515	38	8	
4	0	0	0	0	498	578	0	518	38	7	
5	0	0	0	0	500	573	0	499	38	8	
6	0	0	0	0	504	554	0	495	38	8	
7	0	0	0	0	496	535	0	491	38	7	
8	0	0	0	0	496	519	0	496	39	7	
9	0	0	0	0	496	483	0	515	38	7	
10	0	0	0	0	500	376	0	528	38	7	
11	0	0	0	0	500	357	0	526	39	9	
12	0	0	0	0	510	395	0	520	38	7	
13	0	0	0	0	505	423	0	515	39	8	
14	0	0	0	0	511	446	0	509	38	7	
15	0	0	0	0	508	459	0	504	38	8	
0	0	0	0	0	507	468	0	511	39	7	
1	0	0	0	0	510	485	0	528	39	7	
2	0	0	0	0	516	499	0	530	38	7	
3	0	0	0	0	515	504	0	527	38	9	
4	0	0	0	0	503	508	0	524	38	7	
5	0	0	0	0	501	532	0	511	38	7	
6	0	0	0	0	500	557	0	508	39	7	
7	0	0	0	0	496	565	0	506	38	8	
8	0	0	0	0	499	562	0	504	39	7	
9	0	0	0	0	503	555	0	519	38	7	
10	0	0	0	0	487	551	0	544	38	7	
11	0	0	0	0	496	542	0	541	39	7	
12	0	0	0	0	495	538	0	536	38	8	
13	0	0	0	0	513	533	0	537	39	7	
14	0	0	0	0	508	529	0	527	39	8	
15	0	0	0	0	510	536	0	532	39	8	
0	0	0	0	0	503	543	0	544	39	7	
1	0	0	0	0	510	551	0	540	39	7	
2	0	0	0	0	512	557	0	529	39	7	
3	0	0	0	0	517	545	0	516	39	7	
4	0	0	0	0	505	538	0	508	38	9	
5	0	0	0	0	499	534	0	502	39	7	
6	0	0	0	0	495	531	0	500	39	7	
7	0	0	0	0	506	541	0	496	39	8	
8	0	0	0	0	500	552	0	494	39	7	
9	0	0	0	0	496	553	0	508	39	7	
10	0	0	0	0	503	556	0	533	39	7	
11	0	0	0	0	503	558	0	538	39	7	
12	0	0	0	0	496	566	0	533	39	9	
13	0	0	0	0	514	577	0	523	39	7	
14	0	0	0	0	504	600	0	514	39	7	
15	0	0	0	0	504	609	0	513	39	8	
0	0	0	0	0	504	608	0	527	39	8	
1	0	0	0	0	508	600	0	527	39	7	
2	0	0	0	0	505	596	0	519	39	7	
3	0	0	0	0	507	586	0	514	39	7	
4	0	0	0	0	511	564	0	508	39	8	
5	0	0	0	0	505	564	0	502	39	8	
6	0	0	0	0	508	579	0	498	39	7	
7	0	0	0	0	496	592	0	495	39	7	
8	0	0	0	0	503	600	0	496	39	8	
9	0	0	0	0	499	600	0	499	39	7	
10	0	0	0	0	498	612	0	522	39	7	
11	0	0	0	0	496	623	0	530	39	7	
12	0	0	0	0	496	645	0	524	39	7	
13	0	0	0	0	494	668	0	527	39	9	
14	0	0	0	0	506	680	0	522	39	7	
15	0	0	0	0	511	692	0	516	39	7	
0	0	0	0	0	505	706	0	508	39	7	
1	0	0	0	0	507	716	0	517	39	7	
2	0	0	0	0	507	720	0	531	39	7	
3	0	0	0	0	503	718	0	528	39	7	
4	0	0	0	0	512	707	0	520	39	7	
5	0	0	0	0	509	697	0	511	39	9	
6	0	0	0	0	506	685	0	501	39	7	
7	0	0	0	0	503	671	0	496	39	7	
8	0	0	0	0	503	665	0	497	39	7	
9	0	0	0	0	501	668	0	513	39	7	
10	0	0	0	0	499	662	0	515	39	7	
11	0	0	0	0	504	639	0	508	39	7	
12	0	0	0	0	498	618	0	503	39	7	
13	0	0	0	0	496	600	0	496	39	8	
14	0	0	0	0	500	582	0	492	39	8	
15	0	0	0	0	503	560	0	487	39	7	
0	0	0	0	0	507	536	0	483	39	7	
1	0	0	0	0	504	508	0	482	39	8	
2	0	0	0	0	508	504	0	479	39	7	
3	0	0	0	0	499	519	0	479	39	7	
4	0	0	0	0	513	535	0	477	39	7	
5	0	0	0	0	516	537	0	475	39	7	
6	0	0	0	0	504	521	0	476	39	9	
7	0	0	0	0	496	500	0	475	39	7	
8	0	0	0	0	500	478	0	474	39	7	
9	0	0	0	0	491	455	0	470	39	7	
10	0	0	0	0	501	441	0	468	39	7	
11	0	0	0	0	497	433	0	474	39	7	
12	0	0	0	0	499	425	0	476	39	7	
13	0	0	0	0	502	422	0	481	39	7	
14	0	0	0	0	493	428	0	480	39	9	
15	0	0	0	0	506	433	0	481	39	7	
0	0	0	0	0	508	438	0	481	39	7	
1	0	0	0	0	509	438	0	476	39	7	
2	0	0	0	0	503	433	0	479	39	7	
3	0	0	0	0	510	422	0	480	39	7	
4	0	0	0	0	508	407	0	480	39	7	
5	0	0	0	0	517	395	0	486	39	7	
6	0	0	0	0	512	379	0	484	39	7	
7	0	0	0	0	504	366	0	495	39	8	
8	0	0	0	0	503	367	0	515	39	7	
9	0	0	0	0	502	368	0	524	39	7	
10	0	0	0	0	498	375	0	522	39	8	
11	0	0	0	0	492	386	0	515	39	7	
12	0	0	0	0	503	406	0	515	39	7	
13	0	0	0	0	494	432	0	530	39	7	
14	0	0	0	0	500	465	0	542	39	7	
15	0	0	0	0	496	504	0	549	39	9	
0	0	0	0	0	507	534	0	560	39	7	
1	0	0	0	0	506	557	0	556	39	7	
2	0	0	0	0	501	572	0	574	39	7	
3	0	0	0	0	506	585	0	567	39	7	
4	0	0	0	0	512	596	0	568	39	7	
5	0	0	0	0	500	599	0	577	39	7	
6	0	0	0	0	517	592	0	572	39	7	
7	0	0	0	0	518	574	0	577	39	9	
8	0	0	0	0	508	556	0	571	39	7	
9	0	0	0	0	497	538	0	566	39	7	
10	0	0	0	0	497	528	0	569	39	7	
11	0	0	0	0	496	524	0	559	39	7	
12	0	0	0	0	502	531	0	543	39	7	
13	0	0	0	0	503	530	0	537	39	7	
14	0	0	0	0	496	543	0	528	39	7	
15	0	0	0	0	498	568	0	524	39	7	
0	0	0	0	0	496	601	0	539	39	7	
1	0	0	0	0	499	617	0	542	39	7	
2	0	0	0	0	516	611	0	533	39	7	
3	0	0	0	0	510	602	0	524	39	7	
4	0	0	0	0	504	583	0	513	39	7	
5	0	0	0	0	503	566	0	508	39	7	
6	0	0	0	0	507	568	0	499	39	7	
7	0	0	0	0	514	592	0	496	39	7	
8	0	0	0	0	515	632	0	496	39	9	
9	0	0	0	0	504	663	0	499	39	7	
10	0	0	0	0	499	680	0	521	39	7	
11	0	0	0	0	502	686	0	529	39	7	
12	0	0	0	0	506	688	0	523	38	7	
13	0	0	0	0	496	671	0	517	38	7	
14	0	0	0	0	505	670	0	509	39	7	
15	0	0	0	0	496	742	0	508	38	7	
0	0	0	0	0	488	835	0	521	39	9	
1	0	0	0	0	502	924	0	530	38	7	
2	0	0	0	0	504	984	0	525	38	7	
3	0	0	0	0	498	1017	0	517	38	7	
4	0	0	0	0	503	1022	0	513	38	7	
5	0	0	0	0	497	1022	0	507	38	7	
6	0	0	0	0	505	1022	0	500	38	7	
7	0	0	0	0	514	1022	0	499	38	7	
8	0	0	0	0	517	1022	0	515	39	7	
9	0	0	0	0	503	1022	0	523	38	8	
10	0	0	0	0	504	1022	0	525	39	7	
11	0	0	0	0	499	1022	0	520	38	7	
12	0	0	0	0	500	1022	0	523	38	7	
13	0	0	0	0	509	1022	0	522	39	7	
14	0	0	0	0	501	1022	0	518	39	7	
15	0	0	0	0	496	1022	0	512	39	7	
0	0	0	0	0	499	1022	0	505	39	7	
1	0	0	0	0	489	1022	0	512	39	9	
2	0	0	0	0	504	1022	0	531	39	7	
3	0	0	0	0	510	1022	0	535	39	7	
4	0	0	0	0	503	1020	0	524	39	7	
5	0	0	0	0	512	990	0	511	39	7	
6	0	0	0	0	502	976	0	520	39	7	
7	0	0	0	0	509	957	0	499	39	7	
8	0	0	0	0	512	936	0	500	39	7	
9	0	0	0	0	513	925	0	516	39	9	
10	0	0	0	0	502	933	0	528	39	7	
11	0	0	0	0	495	952	0	526	39	7	
12	0	0	0	0	499	974	0	518	39	7	
13	0	0	0	0	499	975	0	512	39	7	
14	0	0	0	0	504	964	0	507	39	7	
15	0	0	0	0	507	948	0	499	39	7	
0	0	0	0	0	489	933	0	507	39	7	
1	0	0	0	0	491	925	0	523	39	7	
2	0	0	0	0	504	919	0	525	39	8	
3	0	0	0	0	502	899	0	519	39	7	
4	0	0	0	0	513	878	0	523	38	7	
5	0	0	0	0	506	859	0	505	39	7	
6	0	0	0	0	507	829	0	500	39	7	
7	0	0	0	0	500	807	0	498	39	7	
8	0	0	0	0	507	815	0	491	39	7	
9	0	0	0	0	511	814	0	487	39	7	
10	0	0	0	0	501	824	0	487	39	9	
11	0	0	0	0	501	839	0	483	39	7	
12	0	0	0	0	499	844	0	485	38	7	
13	0	0	0	0	497	851	0	484	38	7	
14	0	0	0	0	499	852	0	502	38	7	
15	0	0	0	0	498	850	0	520	38	7	
0	0	0	0	0	505	855	0	527	39	7	
1	0	0	0	0	496	857	0	546	38	7	
2	0	0	0	0	493	862	0	546	38	9	
3	0	0	0	0	505	870	0	545	38	7	
4	0	0	0	0	514	879	0	536	38	7	
5	0	0	0	0	518	877	0	523	38	7	
6	0	0	0	0	505	867	0	514	38	7	
7	0	0	0	0	509	856	0	508	38	7	
8	0	0	0	0	509	845	0	501	38	7	
9	0	0	0	0	515	830	0	510	38	7	
10	0	0	0	0	504	817	0	531	38	7	
11	0	0	0	0	504	804	0	535	38	8	
12	0	0	0	0	496	789	0	528	38	7	
13	0	0	0	0	507	779	0	517	38	7	
14	0	0	0	0	496	779	0	520	38	7	
15	0	0	0	0	496	790	0	504	38	7	
0	0	0	0	0	495	797	0	498	38	7	
1	0	0	0	0	496	803	0	495	38	7	
2	0	0	0	0	498	805	0	511	38	7	
3	0	0	0	0	502	801	0	530	38	9	
4	0	0	0	0	506	791	0	531	38	7	
5	0	0	0	0	512	785	0	529	38	7	
6	0	0	0	0	505	778	0	542	38	7	
7	0	0	0	0	506	767	0	541	38	7	
8	0	0	0	0	500	758	0	532	38	7	
9	0	0	0	0	508	753	0	528	38	7	
10	0	0	0	0	509	758	0	527	38	7	
11	0	0	0	0	515	752	0	519	38	9	
12	0	0	0	0	498	740	0	526	38	7	
13	0	0	0	0	499	731	0	508	38	7	
14	0	0	0	0	491	719	0	501	38	7	
15	0	0	0	0	501	719	0	499	38	8	
0	0	0	0	0	500	723	0	497	38	7	
1	0	0	0	0	510	726	0	495	38	7	
2	0	0	0	0	493	731	0	497	38	7	
3	0	0	0	0	496	736	0	496	38	8	
4	0	0	0	0	496	743	0	499	38	8	
5	0	0	0	0	505	743	0	521	38	7	
6	0	0	0	0	513	738	0	536	38	7	
7	0	0	0	0	506	709	0	545	38	8	
8	0	0	0	0	510	688	0	560	38	7	
9	0	0	0	0	504	688	0	552	38	7	
10	0	0	0	0	506	682	0	536	38	7	
11	0	0	0	0	512	668	0	518	38	7	
12	0	0	0	0	514	666	0	509	38	9	
13	0	0	0	0	499	675	0	496	38	7	
14	0	0	0	0	499	688	0	494	38	8	
15	0	0	0	0	499	687	0	487	38	7	
0	0	0	0	0	496	675	0	499	39	7	
1	0	0	0	0	500	667	0	482	38	7	
2	0	0	0	0	500	666	0	477	38	7	
3	0	0	0	0	497	664	0	482	38	7	
4	0	0	0	0	493	654	0	482	38	9	
5	0	0	0	0	512	646	0	480	38	7	
6	0	0	0	0	506	637	0	483	38	8	
7	0	0	0	0	504	626	0	479	38	7	
8	0	0	0	0	503	627	0	479	38	8	
9	0	0	0	0	505	635	0	472	38	7	
10	0	0	0	0	513	643	0	470	38	7	
11	0	0	0	0	514	646	0	475	38	7	
12	0	0	0	0	514	647	0	478	38	8	
13	0	0	0	0	510	637	0	484	38	8	
14	0	0	0	0	501	636	0	484	38	7	
15	0	0	0	0	496	638	0	483	38	7	
0	0	0	0	0	498	639	0	480	38	8	
1	0	0	0	0	498	631	0	484	38	7	
2	0	0	0	0	502	625	0	512	38	7	
3	0	0	0	0	495	620	0	527	38	7	
4	0	0	0	0	492	620	0	524	38	7	
5	0	0	0	0	494	624	0	521	38	9	
6	0	0	0	0	507	624	0	509	38	7	
7	0	0	0	0	500	624	0	504	38	7	
8	0	0	0	0	510	624	0	492	39	7	
9	0	0	0	0	519	620	0	485	39	7	
10	0	0	0	0	504	612	0	484	39	7	
11	0	0	0	0	502	595	0	481	39	7	
12	0	0	0	0	518	582	0	486	38	7	
13	0	0	0	0	505	573	0	484	39	9	
14	0	0	0	0	501	571	0	483	39	7	
15	0	0	0	0	504	577	0	485	39	7	
0	0	0	0	0	496	583	0	479	39	7	
1	0	0	0	0	491	592	0	476	39	8	
2	0	0	0	0	490	609	0	474	39	7	
3	0	0	0	0	507	629	0	470	39	7	
4	0	0	0	0	493	647	0	476	39	7	
5	0	0	0	0	502	649	0	476	39	8	
6	0	0	0	0	502	640	0	480	39	8	
7	0	0	0	0	506	625	0	477	39	7	
8	0	0	0	0	510	607	0	478	39	7	
9	0	0	0	0	496	590	0	478	39	8	
10	0	0	0	0	506	575	0	479	39	7	
11	0	0	0	0	510	572	0	488	39	7	
12	0	0	0	0	514	578	0	513	39	7	
13	0	0	0	0	520	580	0	526	39	7	
14	0	0	0	0	510	579	0	526	39	9	
15	0	0	0	0	507	584	0	516	39	7	
0	0	0	0	0	497	586	0	507	39	7	
1	0	0	0	0	494	582	0	494	39	7	
2	0	0	0	0	506	581	0	486	39	7	
3	0	0	0	0	500	566	0	493	39	7	
4	0	0	0	0	499	546	0	485	39	7	
5	0	0	0	0	487	554	0	488	39	7	
6	0	0	0	0	488	565	0	487	39	9	
7	0	0	0	0	512	569	0	484	39	7	
8	0	0	0	0	506	572	0	481	39	7	
9	0	0	0	0	499	566	0	478	39	7	
10	0	0	0	0	511	555	0	483	39	7	
11	0	0	0	0	505	543	0	481	39	7	
12	0	0	0	0	511	531	0	483	38	7	
13	0	0	0	0	513	515	0	489	38	7	
14	0	0	0	0	508	506	0	489	38	7	
15	0	0	0	0	511	511	0	494	38	8	
0	0	0	0	0	496	527	0	488	39	7	
1	0	0	0	0	503	534	0	497	38	7	
2	0	0	0	0	497	529	0	487	38	7	
3	0	0	0	0	497	524	0	487	38	7	
4	0	0	0	0	499	523	0	493	38	7	
5	0	0	0	0	511	518	0	493	38	7	
6	0	0	0	0	506	516	0	492	38	7	
7	0	0	0	0	488	522	0	493	38	9	
8	0	0	0	0	498	530	0	487	39	7	
9	0	0	0	0	509	529	0	485	38	7	
10	0	0	0	0	510	520	0	485	38	7	
11	0	0	0	0	514	511	0	507	38	7	
12	0	0	0	0	499	502	0	527	38	7	
13	0	0	0	0	504	488	0	529	38	7	
14	0	0	0	0	505	477	0	525	38	7	
15	0	0	0	0	503	464	0	518	38	9	
0	0	0	0	0	503	454	0	508	38	7	
1	0	0	0	0	502	445	0	504	38	7	
2	0	0	0	0	497	440	0	497	38	7	
3	0	0	0	0	497	442	0	497	38	7	
4	0	0	0	0	498	452	0	494	38	7	
5	0	0	0	0	511	462	0	491	38	7	
6	0	0	0	0	494	472	0	493	38	7	
7	0	0	0	0	495	483	0	487	38	7	
8	0	0	0	0	497	493	0	487	38	8	
9	0	0	0	0	508	493	0	482	38	7	
10	0	0	0	0	509	489	0	482	38	7	
11	0	0	0	0	503	483	0	487	38	7	
12	0	0	0	0	514	475	0	496	38	7	
13	0	0	0	0	508	464	0	524	38	7	
14	0	0	0	0	505	454	0	538	38	7	
15	0	0	0	0	510	445	0	553	38	7	
0	0	0	0	0	500	438	0	558	39	9	
1	0	0	0	0	500	419	0	555	38	7	
2	0	0	0	0	503	403	0	565	39	7	
3	0	0	0	0	514	389	0	564	39	7	
4	0	0	0	0	498	383	0	568	38	7	
5	0	0	0	0	496	376	0	569	39	7	
6	0	0	0	0	506	376	0	577	39	7	
7	0	0	0	0	491	399	0	576	39	7	
8	0	0	0	0	501	420	0	568	39	9	
9	0	0	0	0	505	435	0	569	39	7	
10	0	0	0	0	508	446	0	572	39	7	
11	0	0	0	0	500	460	0	566	39	8	
12	0	0	0	0	501	465	0	572	38	8	
13	0	0	0	0	509	455	0	563	39	7	
14	0	0	0	0	506	451	0	568	39	7	
15	0	0	0	0	515	452	0	560	39	7	
0	0	0	0	0	515	453	0	548	39	8	
1	0	0	0	0	506	455	0	559	39	8	
2	0	0	0	0	510	452	0	560	39	7	
3	0	0	0	0	501	444	0	567	39	8	
4	0	0	0	0	497	431	0	569	39	8	
5	0	0	0	0	498	416	0	563	39	8	
6	0	0	0	0	499	412	0	591	39	7	
7	0	0	0	0	506	420	0	568	39	7	
8	0	0	0	0	494	430	0	569	39	7	
9	0	0	0	0	490	431	0	572	39	9	
10	0	0	0	0	510	423	0	566	39	7	
11	0	0	0	0	501	415	0	573	39	8	
12	0	0	0	0	505	410	0	564	39	7	
13	0	0	0	0	504	399	0	565	39	8	
14	0	0	0	0	510	402	0	574	39	7	
15	0	0	0	0	507	424	0	563	39	7	
0	0	0	0	0	512	447	0	570	39	7	
1	0	0	0	0	513	465	0	565	39	9	
2	0	0	0	0	504	463	0	548	39	7	
3	0	0	0	0	503	454	0	532	39	8	
4	0	0	0	0	505	443	0	517	39	8	
5	0	0	0	0	502	427	0	509	39	8	
6	0	0	0	0	496	417	0	499	39	8	
7	0	0	0	0	502	410	0	492	39	7	
8	0	0	0	0	494	398	0	491	39	7	
9	0	0	0	0	491	394	0	493	39	7	
10	0	0	0	0	500	401	0	513	39	8	
11	0	0	0	0	505	409	0	521	39	7	
12	0	0	0	0	506	415	0	537	39	8	
13	0	0	0	0	516	423	0	547	39	8	
14	0	0	0	0	512	430	0	547	39	8	
15	0	0	0	0	506	435	0	560	39	7	
0	0	0	0	0	512	432	0	556	39	7	
1	0	0	0	0	512	435	0	551	39	7	
2	0	0	0	0	507	443	0	540	39	9	
3	0	0	0	0	504	440	0	525	39	7	
4	0	0	0	0	496	414	0	513	39	7	
5	0	0	0	0	504	403	0	505	39	8	
6	0	0	0	0	504	400	0	499	39	8	
7	0	0	0	0	507	400	0	497	39	7	
8	0	0	0	0	492	421	0	493	39	7	
9	0	0	0	0	489	435	0	495	39	7	
10	0	0	0	0	496	440	0	490	39	9	
11	0	0	0	0	512	439	0	489	39	7	
12	0	0	0	0	510	442	0	503	39	7	
13	0	0	0	0	507	439	0	525	39	7	
14	0	0	0	0	506	426	0	529	39	8	
15	0	0	0	0	496	417	0	526	39	7	
0	0	0	0	0	500	409	0	535	39	7	
1	0	0	0	0	505	397	0	543	39	7	
2	0	0	0	0	511	382	0	545	39	8	
3	0	0	0	0	506	385	0	561	39	8	
4	0	0	0	0	504	397	0	558	39	7	
5	0	0	0	0	504	403	0	548	39	7	
6	0	0	0	0	504	410	0	543	39	8	
7	0	0	0	0	497	412	0	548	39	7	
8	0	0	0	0	504	421	0	539	39	7	
9	0	0	0	0	508	419	0	527	39	7	
10	0	0	0	0	494	408	0	526	39	7	
11	0	0	0	0	493	412	0	519	39	9	
12	0	0	0	0	513	422	0	511	39	7	
13	0	0	0	0	501	435	0	506	39	7	
14	0	0	0	0	505	442	0	500	39	7	
15	0	0	0	0	513	442	0	496	39	7	
0	0	0	0	0	510	442	0	496	39	7	
1	0	0	0	0	503	440	0	500	39	7	
2	0	0	0	0	515	439	0	524	39	7	
3	0	0	0	0	512	448	0	530	39	9	
4	0	0	0	0	503	455	0	524	39	7	
5	0	0	0	0	498	458	0	517	39	7	
6	0	0	0	0	492	452	0	508	39	7	
7	0	0	0	0	495	444	0	505	39	8	
8	0	0	0	0	500	439	0	520	39	7	
9	0	0	0	0	503	435	0	528	39	7	
10	0	0	0	0	494	431	0	524	39	7	
11	0	0	0	0	500	423	0	515	39	7	
12	0	0	0	0	505	425	0	509	39	8	
13	0	0	0	0	512	427	0	501	39	7	
14	0	0	0	0	509	423	0	496	39	7	
15	0	0	0	0	508	419	0	496	39	8	
0	0	0	0	0	509	413	0	500	39	7	
1	0	0	0	0	504	415	0	521	39	7	
2	0	0	0	0	504	418	0	535	39	7	
3	0	0	0	0	514	405	0	522	39	7	
4	0	0	0	0	505	398	0	514	39	9	
5	0	0	0	0	503	397	0	505	39	7	
6	0	0	0	0	501	415	0	501	39	7	
7	0	0	0	0	499	429	0	495	39	7	
8	0	0	0	0	505	437	0	491	39	8	
9	0	0	0	0	503	438	0	501	39	7	
10	0	0	0	0	502	431	0	519	39	7	
11	0	0	0	0	491	438	0	522	39	7	
12	0	0	0	0	495	438	0	517	39	9	
13	0	0	0	0	508	431	0	520	39	7	
14	0	0	0	0	506	426	0	515	39	7	
15	0	0	0	0	503	416	0	514	39	8	
0	0	0	0	0	504	410	0	534	39	8	
1	0	0	0	0	509	405	0	537	39	7	
2	0	0	0	0	508	396	0	528	39	7	
3	0	0	0	0	513	390	0	519	39	7	
4	0	0	0	0	509	387	0	508	39	8	
5	0	0	0	0	500	395	0	502	39	8	
6	0	0	0	0	502	405	0	496	39	7	
7	0	0	0	0	503	403	0	490	39	8	
8	0	0	0	0	498	402	0	491	39	8	
9	0	0	0	0	496	401	0	495	39	8	
10	0	0	0	0	501	395	0	519	39	7	
11	0	0	0	0	500	390	0	526	39	7	
12	0	0	0	0	500	387	0	521	39	7	
13	0	0	0	0	499	391	0	515	39	9	
14	0	0	0	0	505	390	0	512	39	7	
15	0	0	0	0	505	394	0	518	39	8	
0	0	0	0	0	505	403	0	536	39	8	
1	0	0	0	0	512	409	0	542	38	8	
2	0	0	0	0	504	408	0	534	38	8	
3	0	0	0	0	508	401	0	522	38	7	
4	0	0	0	0	510	401	0	512	38	7	
5	0	0	0	0	506	410	0	503	38	9	
6	0	0	0	0	505	418	0	495	38	7	
7	0	0	0	0	497	425	0	493	38	8	
8	0	0	0	0	506	435	0	496	38	8	
9	0	0	0	0	490	446	0	515	38	8	
10	0	0	0	0	499	453	0	519	38	8	
11	0	0	0	0	506	448	0	515	38	7	
12	0	0	0	0	491	458	0	518	38	7	
13	0	0	0	0	498	470	0	515	38	7	
14	0	0	0	0	496	464	0	509	38	8	
15	0	0	0	0	508	457	0	501	38	8	
0	0	0	0	0	511	455	0	494	38	8	
1	0	0	0	0	518	456	0	504	38	8	
2	0	0	0	0	503	452	0	524	38	8	
3	0	0	0	0	497	450	0	527	38	8	
4	0	0	0	0	499	443	0	520	38	7	
5	0	0	0	0	513	438	0	511	38	7	
6	0	0	0	0	512	433	0	505	38	9	
7	0	0	0	0	504	416	0	499	38	7	
8	0	0	0	0	499	405	0	499	39	8	
9	0	0	0	0	505	401	0	515	38	8	
10	0	0	0	0	502	396	0	526	38	8	
11	0	0	0	0	503	396	0	522	39	8	
12	0	0	0	0	503	393	0	511	38	7	
13	0	0	0	0	488	393	0	505	39	7	
14	0	0	0	0	496	384	0	494	39	9	
15	0	0	0	0	504	380	0	484	39	7	
0	0	0	0	0	509	385	0	477	39	8	
1	0	0	0	0	508	396	0	476	39	8	
2	0	0	0	0	503	406	0	500	39	8	
3	0	0	0	0	508	405	0	511	39	8	
4	0	0	0	0	504	400	0	508	38	7	
5	0	0	0	0	506	401	0	502	39	7	
6	0	0	0	0	509	400	0	493	39	8	
7	0	0	0	0	506	404	0	503	39	8	
8	0	0	0	0	496	411	0	475	39	8	
9	0	0	0	0	504	415	0	485	39	8	
10	0	0	0	0	503	419	0	505	39	8	
11	0	0	0	0	504	425	0	516	39	8	
12	0	0	0	0	496	430	0	538	39	7	
13	0	0	0	0	506	434	0	542	39	7	
14	0	0	0	0	490	436	0	550	39	7	
15	0	0	0	0	499	435	0	553	39	9	
0	0	0	0	0	505	431	0	547	39	7	
1	0	0	0	0	508	434	0	554	39	8	
2	0	0	0	0	507	437	0	545	39	7	
3	0	0	0	0	519	439	0	539	39	8	
4	0	0	0	0	511	432	0	527	39	8	
5	0	0	0	0	506	430	0	512	39	7	
6	0	0	0	0	508	429	0	502	39	7	
7	0	0	0	0	520	440	0	493	39	9	
8	0	0	0	0	511	443	0	486	39	7	
9	0	0	0	0	491	452	0	496	39	7	
10	0	0	0	0	495	465	0	515	39	8	
11	0	0	0	0	495	476	0	518	39	8	
12	0	0	0	0	499	477	0	514	39	8	
13	0	0	0	0	498	472	0	502	39	7	
14	0	0	0	0	493	472	0	494	39	7	
15	0	0	0	0	496	474	0	487	39	7	
0	0	0	0	0	500	484	0	484	39	8	
1	0	0	0	0	509	493	0	479	39	7	
2	0	0	0	0	507	496	0	492	39	8	
3	0	0	0	0	507	493	0	511	39	8	
4	0	0	0	0	508	483	0	519	39	8	
5	0	0	0	0	499	468	0	540	39	7	
6	0	0	0	0	500	453	0	542	39	7	
7	0	0	0	0	517	438	0	547	39	7	
8	0	0	0	0	512	426	0	549	39	9	
9	0	0	0	0	503	413	0	543	39	7	
10	0	0	0	0	496	403	0	554	39	7	
11	0	0	0	0	497	397	0	548	39	7	
12	0	0	0	0	500	400	0	533	39	8	
13	0	0	0	0	500	406	0	527	39	7	
14	0	0	0	0	503	407	0	526	39	7	
15	0	0	0	0	491	404	0	516	39	7	
0	0	0	0	0	498	406	0	527	39	9	
1	0	0	0	0	506	414	0	536	39	7	
2	0	0	0	0	508	423	0	529	39	7	
3	0	0	0	0	500	433	0	517	39	7	
4	0	0	0	0	510	439	0	507	39	8	
5	0	0	0	0	514	442	0	498	39	7	
6	0	0	0	0	509	442	0	492	39	7	
7	0	0	0	0	509	440	0	493	39	7	
8	0	0	0	0	510	436	0	492	39	7	
9	0	0	0	0	504	441	0	510	39	8	
10	0	0	0	0	496	445	0	515	39	7	
11	0	0	0	0	500	446	0	511	39	7	
12	0	0	0	0	499	452	0	506	39	8	
13	0	0	0	0	497	456	0	500	39	7	
14	0	0	0	0	503	455	0	497	39	7	
15	0	0	0	0	501	456	0	492	39	7	
0	0	0	0	0	495	455	0	498	39	7	
1	0	0	0	0	502	451	0	502	39	9	
2	0	0	0	0	505	450	0	519	39	7	
3	0	0	0	0	504	454	0	522	39	7	
4	0	0	0	0	508	451	0	516	39	8	
5	0	0	0	0	505	446	0	507	39	7	
6	0	0	0	0	504	437	0	504	39	7	
7	0	0	0	0	507	431	0	505	39	7	
8	0	0	0	0	510	428	0	522	39	7	
9	0	0	0	0	512	425	0	524	39	9	
10	0	0	0	0	504	422	0	519	39	7	
11	0	0	0	0	498	420	0	518	39	7	
12	0	0	0	0	499	423	0	513	39	7	
13	0	0	0	0	496	421	0	508	39	8	
14	0	0	0	0	497	413	0	501	39	7	
15	0	0	0	0	507	401	0	493	39	7	
0	0	0	0	0	501	391	0	491	39	7	
1	0	0	0	0	500	394	0	484	39	7	
2	0	0	0	0	493	411	0	487	39	8	
3	0	0	0	0	506	430	0	507	39	7	
4	0	0	0	0	509	444	0	515	38	7	
5	0	0	0	0	509	445	0	510	39	8	
6	0	0	0	0	504	444	0	500	39	7	
7	0	0	0	0	500	442	0	495	39	7	
8	0	0	0	0	507	443	0	487	39	7	
9	0	0	0	0	508	436	0	499	39	7	
10	0	0	0	0	508	428	0	517	38	9	
11	0	0	0	0	498	421	0	517	39	7	
12	0	0	0	0	495	419	0	511	38	7	
13	0	0	0	0	504	428	0	501	39	7	
14	0	0	0	0	497	433	0	492	39	8	
15	0	0	0	0	507	436	0	499	38	7	
0	0	0	0	0	502	442	0	510	39	7	
1	0	0	0	0	493	460	0	507	39	7	
2	0	0	0	0	496	467	0	497	39	9	
3	0	0	0	0	504	472	0	487	39	7	
4	0	0	0	0	508	483	0	482	38	7	
5	0	0	0	0	504	492	0	474	39	8	
6	0	0	0	0	504	494	0	476	39	8	
7	0	0	0	0	511	490	0	473	39	8	
8	0	0	0	0	511	489	0	465	39	7	
9	0	0	0	0	515	487	0	467	39	7	
10	0	0	0	0	510	474	0	464	39	7	
11	0	0	0	0	510	464	0	468	39	8	
12	0	0	0	0	499	459	0	467	38	7	
13	0	0	0	0	497	471	0	464	39	7	
14	0	0	0	0	495	495	0	465	39	8	
15	0	0	0	0	498	511	0	463	39	7	
0	0	0	0	0	494	518	0	472	39	7	
1	0	0	0	0	499	520	0	463	39	7	
2	0	0	0	0	504	520	0	463	39	7	
3	0	0	0	0	499	519	0	465	38	9	
4	0	0	0	0	505	525	0	464	38	7	
5	0	0	0	0	503	536	0	470	38	8	
6	0	0	0	0	508	539	0	471	38	7	
7	0	0	0	0	511	549	0	471	38	8	
8	0	0	0	0	500	568	0	470	39	8	
9	0	0	0	0	504	571	0	466	39	7	
10	0	0	0	0	515	555	0	472	39	7	
11	0	0	0	0	507	534	0	472	39	9	
12	0	0	0	0	508	517	0	472	39	7	
13	0	0	0	0	498	507	0	476	39	8	
14	0	0	0	0	492	508	0	479	39	8	
15	0	0	0	0	495	511	0	484	39	8	
0	0	0	0	0	500	509	0	479	39	8	
1	0	0	0	0	505	506	0	473	39	7	
2	0	0	0	0	500	505	0	476	39	7	
3	0	0	0	0	499	505	0	480	39	7	
4	0	0	0	0	495	513	0	485	39	8	
5	0	0	0	0	507	529	0	506	39	7	
6	0	0	0	0	512	536	0	521	39	8	
7	0	0	0	0	507	534	0	517	39	8	
8	0	0	0	0	505	526	0	504	39	8	
9	0	0	0	0	493	512	0	495	39	7	
10	0	0	0	0	508	504	0	483	39	7	
11	0	0	0	0	518	504	0	476	39	7	
12	0	0	0	0	510	503	0	475	39	9	
13	0	0	0	0	501	502	0	472	39	7	
14	0	0	0	0	503	487	0	473	39	8	
15	0	0	0	0	504	469	0	471	39	8	
0	0	0	0	0	494	468	0	465	39	8	
1	0	0	0	0	495	461	0	465	39	8	
2	0	0	0	0	503	442	0	465	39	7	
3	0	0	0	0	491	424	0	469	39	7	
4	0	0	0	0	500	404	0	469	39	9	
5	0	0	0	0	505	385	0	468	39	7	
6	0	0	0	0	508	360	0	472	39	8	
7	0	0	0	0	502	337	0	470	39	8	
8	0	0	0	0	505	314	0	486	39	8	
9	0	0	0	0	504	286	0	467	39	8	
10	0	0	0	0	508	275	0	464	39	7	
11	0	0	0	0	506	279	0	468	39	7	
12	0	0	0	0	516	291	0	469	39	7	
13	0	0	0	0	517	312	0	472	39	8	
14	0	0	0	0	497	326	0	472	39	8	
15	0	0	0	0	507	331	0	469	39	8	
0	0	0	0	0	504	335	0	468	39	8	
1	0	0	0	0	499	340	0	463	39	8	
2	0	0	0	0	498	353	0	464	39	8	
3	0	0	0	0	494	363	0	467	39	7	
4	0	0	0	0	490	364	0	487	39	7	
5	0	0	0	0	488	365	0	508	39	9	
6	0	0	0	0	508	366	0	511	39	7	
7	0	0	0	0	510	377	0	509	39	8	
8	0	0	0	0	512	387	0	500	39	8	
9	0	0	0	0	512	397	0	492	39	8	
10	0	0	0	0	508	410	0	491	39	8	
11	0	0	0	0	503	415	0	495	39	7	
12	0	0	0	0	518	410	0	490	39	7	
13	0	0	0	0	507	404	0	487	39	9	
14	0	0	0	0	506	399	0	487	39	7	
15	0	0	0	0	496	397	0	501	39	8	
0	0	0	0	0	498	405	0	522	39	8	
1	0	0	0	0	495	423	0	528	39	8	
2	0	0	0	0	497	443	0	545	39	8	
3	0	0	0	0	510	453	0	554	39	7	
4	0	0	0	0	502	467	0	559	39	7	
5	0	0	0	0	496	479	0	568	39	8	
6	0	0	0	0	500	488	0	562	39	8	
7	0	0	0	0	503	505	0	567	39	8	
8	0	0	0	0	505	520	0	564	39	8	
9	0	0	0	0	514	532	0	560	39	8	
10	0	0	0	0	508	533	0	565	39	8	
11	0	0	0	0	508	513	0	553	39	8	
12	0	0	0	0	503	489	0	537	39	7	
13	0	0	0	0	520	482	0	521	39	7	
14	0	0	0	0	510	481	0	521	39	9	
15	0	0	0	0	502	475	0	537	39	7	
0	0	0	0	0	495	472	0	542	39	8	
1	0	0	0	0	494	467	0	555	39	8	
2	0	0	0	0	502	467	0	562	39	8	
3	0	0	0	0	500	473	0	563	39	8	
4	0	0	0	0	498	483	0	571	39	7	
5	0	0	0	0	492	507	0	565	39	7	
6	0	0	0	0	500	531	0	571	39	9	
7	0	0	0	0	508	532	0	571	39	7	
8	0	0	0	0	502	519	0	568	39	8	
9	0	0	0	0	503	507	0	573	39	8	
10	0	0	0	0	507	511	0	564	39	8	
11	0	0	0	0	496	512	0	568	39	8	
12	0	0	0	0	513	514	0	563	39	7	
13	0	0	0	0	515	526	0	547	39	7	
14	0	0	0	0	521	538	0	539	39	7	
15	0	0	0	0	504	540	0	551	39	8	
0	0	0	0	0	501	540	0	549	39	8	
1	0	0	0	0	507	540	0	536	39	8	
2	0	0	0	0	501	547	0	524	39	8	
3	0	0	0	0	499	548	0	511	39	8	
4	0	0	0	0	500	546	0	503	39	7	
5	0	0	0	0	499	536	0	496	39	7	
6	0	0	0	0	491	527	0	492	39	7	
7	0	0	0	0	492	519	0	491	39	9	
8	0	0	0	0	510	519	0	495	39	7	
9	0	0	0	0	510	524	0	513	39	8	
10	0	0	0	0	508	528	0	519	39	7	
11	0	0	0	0	510	535	0	514	39	8	
12	0	0	0	0	503	544	0	509	39	8	
13	0	0	0	0	504	551	0	504	39	7	
14	0	0	0	0	512	553	0	499	39	7	
15	0	0	0	0	510	546	0	494	39	9	
0	0	0	0	0	513	534	0	495	39	7	
1	0	0	0	0	494	529	0	489	39	8	
2	0	0	0	0	493	536	0	483	39	8	
3	0	0	0	0	499	537	0	485	39	8	
4	0	0	0	0	495	531	0	483	39	7	
5	0	0	0	0	501	524	0	480	39	7	
6	0	0	0	0	498	513	0	482	39	7	
7	0	0	0	0	494	504	0	480	39	7	
8	0	0	0	0	497	507	0	479	39	8	
9	0	0	0	0	508	516	0	473	39	7	
10	0	0	0	0	510	520	0	470	39	7	
11	0	0	0	0	505	521	0	480	39	8	
12	0	0	0	0	513	512	0	472	38	8	
13	0	0	0	0	504	511	0	477	39	7	
14	0	0	0	0	495	512	0	474	39	7	
15	0	0	0	0	519	519	0	472	39	7	
0	0	0	0	0	515	533	0	471	39	9	
1	0	0	0	0	508	540	0	466	39	7	
2	0	0	0	0	501	547	0	470	39	7	
3	0	0	0	0	503	545	0	468	39	8	
4	0	0	0	0	499	547	0	467	38	8	
5	0	0	0	0	497	556	0	472	39	8	
6	0	0	0	0	492	571	0	471	39	7	
7	0	0	0	0	493	588	0	475	39	7	
8	0	0	0	0	492	591	0	494	39	9	
9	0	0	0	0	505	584	0	504	39	7	
10	0	0	0	0	499	572	0	505	39	8	
11	0	0	0	0	504	568	0	496	39	8	
12	0	0	0	0	511	568	0	496	38	8	
13	0	0	0	0	512	566	0	512	39	8	
14	0	0	0	0	507	563	0	522	39	7	
15	0	0	0	0	506	558	0	529	39	7	
0	0	0	0	0	513	546	0	538	39	7	
1	0	0	0	0	508	543	0	534	39	8	
2	0	0	0	0	502	535	0	542	39	7	
3	0	0	0	0	499	520	0	545	39	8	
4	0	0	0	0	489	511	0	545	39	8	
5	0	0	0	0	506	510	0	551	39	8	
6	0	0	0	0	501	518	0	541	39	8	
7	0	0	0	0	502	522	0	524	39	7	
8	0	0	0	0	494	525	0	510	39	7	
9	0	0	0	0	492	533	0	500	39	9	
10	0	0	0	0	502	527	0	495	39	8	
11	0	0	0	0	505	530	0	514	39	8	
12	0	0	0	0	515	547	0	518	39	8	
13	0	0	0	0	505	563	0	512	39	8	
14	0	0	0	0	504	582	0	518	39	8	
15	0	0	0	0	503	604	0	535	39	7	
0	0	0	0	0	518	616	0	535	39	7	
1	0	0	0	0	512	624	0	526	39	9	
2	0	0	0	0	503	623	0	512	39	8	
3	0	0	0	0	498	625	0	505	39	8	
4	0	0	0	0	504	615	0	497	39	8	
5	0	0	0	0	498	585	0	494	39	8	
6	0	0	0	0	499	566	0	489	39	8	
7	0	0	0	0	499	563	0	485	39	8	
8	0	0	0	0	496	556	0	496	39	7	
9	0	0	0	0	496	547	0	511	39	8	
10	0	0	0	0	489	543	0	513	39	8	
11	0	0	0	0	505	538	0	507	39	8	
12	0	0	0	0	506	534	0	498	39	8	
13	0	0	0	0	510	524	0	495	39	8	
14	0	0	0	0	504	519	0	486	39	8	
15	0	0	0	0	503	524	0	488	39	8	
0	0	0	0	0	506	535	0	484	39	7	
1	0	0	0	0	514	539	0	499	39	7	
2	0	0	0	0	519	542	0	521	39	9	
3	0	0	0	0	499	542	0	521	39	7	
4	0	0	0	0	504	539	0	515	39	8	
5	0	0	0	0	504	533	0	507	39	8	
6	0	0	0	0	500	528	0	499	39	8	
7	0	0	0	0	507	527	0	505	39	8	
8	0	0	0	0	497	529	0	516	39	7	
9	0	0	0	0	490	531	0	515	39	7	
10	0	0	0	0	492	540	0	505	39	9	
11	0	0	0	0	500	556	0	496	39	7	
12	0	0	0	0	504	575	0	499	39	8	
13	0	0	0	0	503	577	0	499	39	8	
14	0	0	0	0	504	573	0	500	39	8	
15	0	0	0	0	508	564	0	491	39	8	
0	0	0	0	0	510	551	0	487	39	7	
1	0	0	0	0	504	537	0	487	39	7	
2	0	0	0	0	510	521	0	483	39	7	
3	0	0	0	0	502	515	0	486	39	8	
4	0	0	0	0	496	525	0	482	39	7	
5	0	0	0	0	496	551	0	479	39	7	
6	0	0	0	0	502	571	0	482	39	8	
7	0	0	0	0	502	582	0	477	39	7	
8	0	0	0	0	494	588	0	476	39	7	
9	0	0	0	0	507	583	0	470	39	7	
10	0	0	0	0	496	575	0	469	39	7	
11	0	0	0	0	499	573	0	474	39	9	
12	0	0	0	0	508	578	0	475	39	7	
13	0	0	0	0	509	583	0	484	39	7	
14	0	0	0	0	509	581	0	508	39	8	
15	0	0	0	0	508	567	0	524	39	8	
0	0	0	0	0	503	553	0	536	39	8	
1	0	0	0	0	503	546	0	549	39	7	
2	0	0	0	0	514	548	0	549	39	7	
3	0	0	0	0	509	544	0	558	39	9	
4	0	0	0	0	514	540	0	558	38	7	
5	0	0	0	0	498	548	0	545	38	7	
6	0	0	0	0	503	556	0	538	39	8	
7	0	0	0	0	495	566	0	548	38	8	
8	0	0	0	0	504	569	0	546	39	8	
9	0	0	0	0	501	566	0	552	38	7	
10	0	0	0	0	488	573	0	560	38	7	
11	0	0	0	0	495	581	0	551	38	7	
12	0	0	0	0	500	588	0	536	38	8	
13	0	0	0	0	510	587	0	532	38	8	
14	0	0	0	0	503	577	0	520	38	8	
15	0	0	0	0	510	575	0	523	38	8	
0	0	0	0	0	510	581	0	535	39	8	
1	0	0	0	0	507	588	0	530	38	8	
2	0	0	0	0	503	586	0	520	38	7	
3	0	0	0	0	511	561	0	506	38	7	
4	0	0	0	0	513	543	0	499	38	9	
5	0	0	0	0	501	529	0	493	38	7	
6	0	0	0	0	494	523	0	491	38	8	
7	0	0	0	0	499	518	0	485	38	8	
8	0	0	0	0	499	498	0	482	39	8	
9	0	0	0	0	499	471	0	496	38	8	
10	0	0	0	0	498	457	0	520	39	7	
11	0	0	0	0	492	463	0	526	39	7	
12	0	0	0	0	490	484	0	522	38	9	
13	0	0	0	0	508	496	0	513	39	7	
14	0	0	0	0	514	496	0	507	39	8	
15	0	0	0	0	507	499	0	505	39	8	
0	0	0	0	0	508	497	0	535	39	8	
1	0	0	0	0	511	490	0	520	39	8	
2	0	0	0	0	506	487	0	512	39	7	
3	0	0	0	0	509	492	0	506	39	7	
4	0	0	0	0	510	498	0	498	39	7	
5	0	0	0	0	509	508	0	495	39	8	
6	0	0	0	0	506	523	0	490	39	8	
7	0	0	0	0	502	531	0	489	39	8	
8	0	0	0	0	499	540	0	499	39	8	
9	0	0	0	0	500	539	0	514	39	8	
10	0	0	0	0	496	540	0	518	39	8	
11	0	0	0	0	498	540	0	535	39	7	
12	0	0	0	0	499	551	0	542	39	7	
13	0	0	0	0	501	547	0	532	39	9	
14	0	0	0	0	505	525	0	529	39	7	
15	0	0	0	0	506	508	0	543	39	8	
0	0	0	0	0	506	504	0	546	39	8	
1	0	0	0	0	508	505	0	535	39	8	
2	0	0	0	0	507	509	0	523	39	8	
3	0	0	0	0	507	507	0	511	39	7	
4	0	0	0	0	507	502	0	504	39	7	
5	0	0	0	0	510	492	0	509	39	9	
6	0	0	0	0	508	477	0	494	39	7	
7	0	0	0	0	500	466	0	492	39	8	
8	0	0	0	0	498	457	0	493	39	8	
9	0	0	0	0	495	433	0	512	39	8	
10	0	0	0	0	504	406	0	515	39	8	
11	0	0	0	0	504	405	0	510	39	7	
12	0	0	0	0	504	419	0	506	39	7	
13	0	0	0	0	497	443	0	499	39	7	
14	0	0	0	0	498	446	0	496	39	8	
15	0	0	0	0	512	449	0	492	39	8	
0	0	0	0	0	514	452	0	491	39	8	
1	0	0	0	0	500	452	0	501	39	8	
2	0	0	0	0	506	443	0	520	39	8	
3	0	0	0	0	504	434	0	525	39	8	
4	0	0	0	0	500	434	0	520	39	7	
5	0	0	0	0	515	427	0	510	39	7	
6	0	0	0	0	512	419	0	506	39	9	
7	0	0	0	0	502	415	0	507	39	8	
8	0	0	0	0	496	409	0	523	39	8	
9	0	0	0	0	502	407	0	527	39	8	
10	0	0	0	0	503	406	0	520	39	8	
11	0	0	0	0	493	396	0	520	39	8	
12	0	0	0	0	502	390	0	518	38	8	
13	0	0	0	0	494	395	0	511	39	7	
14	0	0	0	0	499	391	0	504	38	9	
15	0	0	0	0	501	384	0	494	38	8	
0	0	0	0	0	505	368	0	489	39	8	
1	0	0	0	0	505	363	0	484	38	8	
2	0	0	0	0	509	382	0	489	38	8	
3	0	0	0	0	509	396	0	510	38	8	
4	0	0	0	0	508	393	0	523	38	8	
5	0	0	0	0	509	392	0	520	38	8	
6	0	0	0	0	514	395	0	510	38	8	
7	0	0	0	0	510	398	0	502	38	8	
8	0	0	0	0	497	408	0	487	38	8	
9	0	0	0	0	504	420	0	499	38	8	
10	0	0	0	0	502	428	0	516	38	8	
11	0	0	0	0	496	427	0	517	38	8	
12	0	0	0	0	505	421	0	511	38	8	
13	0	0	0	0	505	411	0	505	38	8	
14	0	0	0	0	489	391	0	510	38	7	
15	0	0	0	0	502	376	0	527	38	9	
0	0	0	0	0	501	374	0	534	38	8	
1	0	0	0	0	508	364	0	527	38	8	
2	0	0	0	0	506	350	0	514	38	8	
3	0	0	0	0	512	352	0	503	38	8	
4	0	0	0	0	515	367	0	496	38	8	
5	0	0	0	0	504	379	0	489	38	8	
6	0	0	0	0	510	387	0	487	38	7	
7	0	0	0	0	505	396	0	484	38	9	
8	0	0	0	0	511	408	0	481	38	8	
9	0	0	0	0	496	432	0	495	38	8	
10	0	0	0	0	494	442	0	521	38	8	
11	0	0	0	0	495	444	0	528	38	8	
12	0	0	0	0	505	449	0	523	38	8	
13	0	0	0	0	501	435	0	525	38	8	
14	0	0	0	0	500	429	0	519	38	7	
15	0	0	0	0	496	428	0	518	38	7	
0	0	0	0	0	493	434	0	534	38	8	
1	0	0	0	0	506	431	0	534	38	8	
2	0	0	0	0	500	424	0	525	38	8	
3	0	0	0	0	507	416	0	515	38	8	
4	0	0	0	0	508	409	0	505	38	8	
5	0	0	0	0	507	390	0	498	38	8	
6	0	0	0	0	509	363	0	494	38	7	
7	0	0	0	0	515	337	0	489	38	7	
8	0	0	0	0	508	322	0	489	38	9	
9	0	0	0	0	499	317	0	492	38	8	
10	0	0	0	0	498	321	0	513	38	8	
11	0	0	0	0	505	339	0	520	38	8	
12	0	0	0	0	496	367	0	514	38	8	
13	0	0	0	0	497	394	0	508	38	8	
14	0	0	0	0	502	414	0	499	38	7	
15	0	0	0	0	497	425	0	516	38	7	
0	0	0	0	0	491	431	0	513	38	9	
1	0	0	0	0	507	437	0	519	38	8	
2	0	0	0	0	508	449	0	516	38	8	
3	0	0	0	0	507	469	0	508	38	8	
4	0	0	0	0	503	466	0	500	38	8	
5	0	0	0	0	509	456	0	492	38	8	
6	0	0	0	0	508	451	0	487	38	8	
7	0	0	0	0	505	440	0	487	38	7	
8	0	0	0	0	518	418	0	496	39	8	
9	0	0	0	0	506	394	0	512	38	8	
10	0	0	0	0	500	372	0	517	39	8	
11	0	0	0	0	498	365	0	510	38	8	
12	0	0	0	0	493	376	0	513	38	8	
13	0	0	0	0	500	395	0	511	39	8	
14	0	0	0	0	506	414	0	505	39	8	
15	0	0	0	0	503	417	0	498	39	7	
0	0	0	0	0	496	393	0	492	39	7	
1	0	0	0	0	496	387	0	500	39	9	
2	0	0	0	0	499	388	0	518	39	7	
3	0	0	0	0	508	390	0	528	39	8	
4	0	0	0	0	511	372	0	540	38	8	
5	0	0	0	0	512	367	0	543	39	8	
6	0	0	0	0	512	374	0	547	39	8	
7	0	0	0	0	499	391	0	556	39	7	
8	0	0	0	0	506	398	0	545	39	7	
9	0	0	0	0	510	398	0	523	39	9	
10	0	0	0	0	507	413	0	504	39	7	
11	0	0	0	0	501	433	0	494	39	8	
12	0	0	0	0	498	423	0	483	39	8	
13	0	0	0	0	504	432	0	480	39	8	
14	0	0	0	0	499	450	0	476	39	8	
15	0	0	0	0	499	469	0	469	39	7	
0	0	0	0	0	504	476	0	466	39	7	
1	0	0	0	0	496	476	0	461	39	7	
2	0	0	0	0	497	475	0	465	39	8	
3	0	0	0	0	502	475	0	467	39	7	
4	0	0	0	0	508	472	0	466	39	8	
5	0	0	0	0	511	479	0	471	39	8	
6	0	0	0	0	496	485	0	472	39	8	
7	0	0	0	0	499	485	0	476	39	8	
8	0	0	0	0	501	478	0	470	39	7	
9	0	0	0	0	518	458	0	465	39	7	
10	0	0	0	0	512	424	0	470	39	9	
11	0	0	0	0	504	400	0	468	39	7	
12	0	0	0	0	504	399	0	473	39	8	
13	0	0	0	0	496	388	0	472	39	8	
14	0	0	0	0	504	375	0	472	39	8	
15	0	0	0	0	501	366	0	472	39	8	
0	0	0	0	0	499	358	0	468	39	7	
1	0	0	0	0	496	356	0	467	39	7	
2	0	0	0	0	494	359	0	463	39	9	
3	0	0	0	0	500	401	0	465	39	7	
4	0	0	0	0	507	436	0	471	39	8	
5	0	0	0	0	507	440	0	473	39	8	
6	0	0	0	0	502	437	0	478	39	8	
7	0	0	0	0	504	441	0	477	39	8	
8	0	0	0	0	503	447	0	477	39	7	
9	0	0	0	0	511	451	0	489	39	7	
10	0	0	0	0	512	456	0	516	39	7	
11	0	0	0	0	508	453	0	524	39	8	
12	0	0	0	0	496	434	0	520	39	7	
13	0	0	0	0	499	406	0	511	39	8	
14	0	0	0	0	500	392	0	504	39	8	
15	0	0	0	0	497	397	0	491	39	8	
0	0	0	0	0	505	379	0	486	39	8	
1	0	0	0	0	506	336	0	477	39	7	
2	0	0	0	0	494	336	0	473	39	7	
3	0	0	0	0	495	389	0	479	39	9	
4	0	0	0	0	503	441	0	480	39	7	
5	0	0	0	0	495	470	0	483	39	8	
6	0	0	0	0	511	490	0	484	39	8	
7	0	0	0	0	507	512	0	486	39	8	
8	0	0	0	0	510	521	0	487	39	8	
9	0	0	0	0	501	517	0	482	39	7	
10	0	0	0	0	505	503	0	487	39	7	
11	0	0	0	0	509	474	0	485	39	9	
12	0	0	0	0	508	445	0	486	39	7	
13	0	0	0	0	502	421	0	491	39	8	
14	0	0	0	0	507	399	0	488	39	8	
15	0	0	0	0	496	392	0	493	39	8	
0	0	0	0	0	501	389	0	483	39	8	
1	0	0	0	0	501	393	0	480	39	8	
2	0	0	0	0	500	414	0	483	39	7	
3	0	0	0	0	498	438	0	490	39	8	
4	0	0	0	0	487	460	0	517	38	8	
5	0	0	0	0	503	467	0	527	38	8	
6	0	0	0	0	510	462	0	524	39	8	
7	0	0	0	0	505	454	0	516	39	8	
8	0	0	0	0	505	440	0	503	39	8	
9	0	0	0	0	508	423	0	496	39	8	
10	0	0	0	0	500	420	0	502	39	7	
11	0	0	0	0	520	419	0	485	39	7	
12	0	0	0	0	511	414	0	487	39	9	
13	0	0	0	0	500	401	0	484	39	8	
14	0	0	0	0	497	384	0	492	39	8	
15	0	0	0	0	499	372	0	515	39	8	
0	0	0	0	0	496	379	0	528	39	8	
1	0	0	0	0	499	399	0	538	39	8	
2	0	0	0	0	498	419	0	551	39	8	
3	0	0	0	0	500	432	0	550	39	8	
4	0	0	0	0	495	426	0	561	39	9	
5	0	0	0	0	501	406	0	576	39	8	
6	0	0	0	0	512	407	0	564	39	8	
7	0	0	0	0	504	425	0	569	39	8	
8	0	0	0	0	507	465	0	560	39	8	
9	0	0	0	0	510	483	0	566	39	8	
10	0	0	0	0	518	473	0	562	39	8	
11	0	0	0	0	503	473	0	560	39	8	
12	0	0	0	0	508	484	0	568	39	7	
13	0	0	0	0	512	486	0	564	39	8	
14	0	0	0	0	503	487	0	572	39	8	
15	0	0	0	0	500	486	0	572	39	8	
0	0	0	0	0	507	489	0	571	39	8	
1	0	0	0	0	504	491	0	571	39	8	
2	0	0	0	0	497	481	0	565	39	8	
3	0	0	0	0	497	457	0	571	39	8	
4	0	0	0	0	496	440	0	567	39	7	
5	0	0	0	0	500	425	0	563	39	9	
6	0	0	0	0	500	411	0	572	39	8	
7	0	0	0	0	506	399	0	566	39	8	
8	0	0	0	0	501	385	0	571	39	8	
9	0	0	0	0	503	395	0	570	39	8	
10	0	0	0	0	508	419	0	563	39	8	
11	0	0	0	0	513	436	0	568	39	8	
12	0	0	0	0	516	448	0	560	38	8	
13	0	0	0	0	506	442	0	569	39	9	
14	0	0	0	0	511	420	0	567	39	8	
15	0	0	0	0	500	394	0	565	39	8	
0	0	0	0	0	491	370	0	569	39	8	
1	0	0	0	0	491	388	0	558	39	8	
2	0	0	0	0	497	425	0	540	38	8	
3	0	0	0	0	504	428	0	522	38	8	
4	0	0	0	0	501	434	0	511	38	8	
5	0	0	0	0	491	462	0	502	38	7	
6	0	0	0	0	499	489	0	497	38	8	
7	0	0	0	0	507	501	0	494	38	8	
8	0	0	0	0	519	498	0	491	39	8	
9	0	0	0	0	510	487	0	503	38	8	
10	0	0	0	0	503	475	0	526	38	8	
11	0	0	0	0	508	470	0	531	38	8	
12	0	0	0	0	499	465	0	527	38	8	
13	0	0	0	0	519	458	0	528	38	7	
14	0	0	0	0	509	456	0	523	38	9	
15	0	0	0	0	504	457	0	519	38	8	
0	0	0	0	0	500	438	0	536	38	8	
1	0	0	0	0	493	430	0	536	38	8	
2	0	0	0	0	494	434	0	545	38	8	
3	0	0	0	0	499	435	0	552	38	8	
4	0	0	0	0	504	438	0	542	38	7	
5	0	0	0	0	491	435	0	532	38	7	
6	0	0	0	0	501	432	0	540	38	9	
7	0	0	0	0	499	436	0	538	38	8	
8	0	0	0	0	508	448	0	538	38	8	
9	0	0	0	0	501	436	0	543	38	8	
10	0	0	0	0	513	420	0	536	38	8	
11	0	0	0	0	505	420	0	525	38	8	
12	0	0	0	0	509	419	0	512	38	8	
13	0	0	0	0	509	403	0	506	38	7	
14	0	0	0	0	510	388	0	497	38	7	
15	0	0	0	0	511	387	0	495	38	8	
0	0	0	0	0	500	395	0	491	38	8	
1	0	0	0	0	507	408	0	487	38	8	
2	0	0	0	0	498	415	0	486	38	8	
3	0	0	0	0	495	414	0	483	38	8	
4	0	0	0	0	499	410	0	486	38	8	
5	0	0	0	0	498	422	0	483	38	7	
6	0	0	0	0	497	426	0	483	38	7	
7	0	0	0	0	490	419	0	496	39	9	
8	0	0	0	0	499	415	0	516	39	7	
9	0	0	0	0	510	414	0	523	39	8	
10	0	0	0	0	511	426	0	541	39	8	
11	0	0	0	0	514	444	0	546	39	8	
12	0	0	0	0	507	449	0	536	39	8	
13	0	0	0	0	505	437	0	531	39	7	
14	0	0	0	0	509	422	0	528	39	7	
15	0	0	0	0	509	417	0	519	39	9	
0	0	0	0	0	511	415	0	528	39	8	
1	0	0	0	0	500	403	0	542	39	8	
2	0	0	0	0	500	393	0	539	39	8	
3	0	0	0	0	493	391	0	528	39	8	
4	0	0	0	0	502	407	0	516	39	8	
5	0	0	0	0	503	425	0	504	39	8	
6	0	0	0	0	497	431	0	499	39	7	
7	0	0	0	0	494	425	0	494	39	7	
8	0	0	0	0	490	428	0	493	39	8	
9	0	0	0	0	510	454	0	488	39	8	
10	0	0	0	0	512	480	0	503	39	8	
11	0	0	0	0	507	512	0	521	39	8	
12	0	0	0	0	512	527	0	522	39	8	
13	0	0	0	0	507	511	0	519	39	8	
14	0	0	0	0	500	494	0	532	39	8	
15	0	0	0	0	514	493	0	533	39	7	
0	0	0	0	0	513	497	0	521	39	9	
1	0	0	0	0	506	492	0	509	39	8	
2	0	0	0	0	498	481	0	501	39	8	
3	0	0	0	0	496	470	0	495	39	8	
4	0	0	0	0	499	462	0	489	39	8	
5	0	0	0	0	498	453	0	489	39	8	
6	0	0	0	0	504	429	0	486	39	8	
7	0	0	0	0	496	392	0	487	39	8	
8	0	0	0	0	497	355	0	486	39	9	
9	0	0	0	0	504	375	0	503	39	8	
10	0	0	0	0	500	410	0	523	39	8	
11	0	0	0	0	512	411	0	524	39	8	
12	0	0	0	0	512	386	0	520	39	8	
13	0	0	0	0	504	369	0	523	39	8	
14	0	0	0	0	504	396	0	517	39	8	
15	0	0	0	0	504	419	0	524	39	8	
0	0	0	0	0	504	427	0	538	39	8	
1	0	0	0	0	506	423	0	537	39	8	
2	0	0	0	0	498	433	0	527	39	8	
3	0	0	0	0	501	450	0	515	39	8	
4	0	0	0	0	496	463	0	509	39	8	
5	0	0	0	0	494	443	0	503	39	8	
6	0	0	0	0	497	422	0	499	39	8	
7	0	0	0	0	508	425	0	495	39	8	
8	0	0	0	0	500	460	0	494	39	8	
9	0	0	0	0	497	500	0	505	39	10	
10	0	0	0	0	498	524	0	528	39	8	
11	0	0	0	0	508	526	0	539	39	8	
12	0	0	0	0	507	519	0	531	39	8	
13	0	0	0	0	512	521	0	518	39	8	
14	0	0	0	0	505	516	0	511	39	8	
15	0	0	0	0	506	520	0	510	39	8	
0	0	0	0	0	516	520	0	524	39	8	
1	0	0	0	0	515	506	0	525	39	9	
2	0	0	0	0	505	492	0	518	39	8	
3	0	0	0	0	498	492	0	513	39	8	
4	0	0	0	0	496	472	0	505	39	8	
5	0	0	0	0	496	441	0	500	39	8	
6	0	0	0	0	499	422	0	497	39	8	
7	0	0	0	0	506	449	0	494	39	8	
8	0	0	0	0	501	493	0	504	39	7	
9	0	0	0	0	491	532	0	518	39	8	
10	0	0	0	0	496	541	0	521	39	8	
11	0	0	0	0	502	541	0	519	39	8	
12	0	0	0	0	504	536	0	524	39	8	
13	0	0	0	0	513	534	0	523	39	8	
14	0	0	0	0	510	526	0	516	39	8	
15	0	0	0	0	507	523	0	511	39	8	
0	0	0	0	0	507	518	0	507	39	8	
1	0	0	0	0	515	505	0	508	39	7	
2	0	0	0	0	507	482	0	515	39	9	
3	0	0	0	0	500	476	0	536	39	8	
4	0	0	0	0	498	493	0	541	39	8	
5	0	0	0	0	499	505	0	536	39	8	
6	0	0	0	0	494	511	0	524	39	8	
7	0	0	0	0	500	533	0	517	39	8	
8	0	0	0	0	504	566	0	516	39	8	
9	0	0	0	0	494	583	0	532	39	7	
10	0	0	0	0	496	596	0	535	39	9	
11	0	0	0	0	496	603	0	527	39	8	
12	0	0	0	0	511	598	0	521	39	8	
13	0	0	0	0	510	571	0	515	39	8	
14	0	0	0	0	505	537	0	506	39	8	
15	0	0	0	0	511	503	0	502	39	8	
0	0	0	0	0	508	467	0	514	39	8	
1	0	0	0	0	510	438	0	526	39	7	
2	0	0	0	0	518	420	0	525	39	7	
3	0	0	0	0	507	399	0	522	39	8	
4	0	0	0	0	497	371	0	515	39	8	
5	0	0	0	0	498	350	0	517	39	8	
6	0	0	0	0	499	327	0	506	39	8	
7	0	0	0	0	499	297	0	503	39	8	
8	0	0	0	0	499	251	0	503	39	8	
9	0	0	0	0	504	195	0	495	39	7	
10	0	0	0	0	494	162	0	492	39	7	
11	0	0	0	0	496	140	0	505	39	9	
12	0	0	0	0	493	165	0	528	39	7	
13	0	0	0	0	510	215	0	537	39	8	
14	0	0	0	0	508	259	0	531	39	8	
15	0	0	0	0	515	286	0	519	39	8	
0	0	0	0	0	505	298	0	536	39	8	
1	0	0	0	0	497	308	0	539	39	8	
2	0	0	0	0	509	321	0	538	39	7	
3	0	0	0	0	516	326	0	530	38	9	
4	0	0	0	0	514	322	0	521	38	8	
5	0	0	0	0	506	320	0	515	38	8	
6	0	0	0	0	500	327	0	509	38	8	
7	0	0	0	0	493	340	0	504	38	8	
8	0	0	0	0	501	364	0	503	39	8	
9	0	0	0	0	492	370	0	500	38	8	
10	0	0	0	0	504	346	0	513	38	7	
11	0	0	0	0	486	290	0	536	38	7	
12	0	0	0	0	491	283	0	541	38	8	
13	0	0	0	0	505	306	0	537	38	7	
14	0	0	0	0	510	357	0	545	38	8	
15	0	0	0	0	513	416	0	551	38	8	
0	0	0	0	0	505	450	0	541	39	8	
1	0	0	0	0	507	469	0	531	38	8	
2	0	0	0	0	502	479	0	520	38	7	
3	0	0	0	0	519	463	0	512	38	7	
4	0	0	0	0	516	457	0	510	38	9	
5	0	0	0	0	501	472	0	507	38	7	
6	0	0	0	0	498	491	0	505	38	8	
7	0	0	0	0	502	504	0	504	39	8	
8	0	0	0	0	497	515	0	503	39	8	
9	0	0	0	0	507	521	0	517	39	8	
10	0	0	0	0	496	518	0	540	39	7	
11	0	0	0	0	496	495	0	547	39	7	
12	0	0	0	0	499	492	0	543	39	9	
13	0	0	0	0	499	527	0	545	39	7	
14	0	0	0	0	507	568	0	540	39	8	
15	0	0	0	0	504	578	0	531	39	8	
0	0	0	0	0	506	573	0	524	39	8	
1	0	0	0	0	510	561	0	537	39	8	
2	0	0	0	0	504	561	0	545	39	7	
3	0	0	0	0	505	556	0	541	39	7	
4	0	0	0	0	510	547	0	533	39	7	
5	0	0	0	0	502	551	0	526	39	8	
6	0	0	0	0	492	559	0	519	39	7	
7	0	0	0	0	499	557	0	512	39	8	
8	0	0	0	0	504	548	0	525	39	8	
9	0	0	0	0	510	526	0	536	39	8	
10	0	0	0	0	500	486	0	537	39	8	
11	0	0	0	0	500	499	0	531	39	7	
12	0	0	0	0	499	518	0	523	39	7	
13	0	0	0	0	497	541	0	518	39	9	
14	0	0	0	0	505	556	0	512	39	7	
15	0	0	0	0	509	571	0	509	39	8	
0	0	0	0	0	507	577	0	506	39	8	
1	0	0	0	0	506	575	0	522	39	8	
2	0	0	0	0	509	571	0	549	39	8	
3	0	0	0	0	508	572	0	543	39	7	
4	0	0	0	0	504	576	0	535	39	7	
5	0	0	0	0	508	580	0	527	39	9	
6	0	0	0	0	504	576	0	519	39	7	
7	0	0	0	0	499	559	0	526	39	7	
8	0	0	0	0	492	537	0	537	39	8	
9	0	0	0	0	500	537	0	534	39	8	
10	0	0	0	0	502	530	0	544	39	8	
11	0	0	0	0	505	514	0	529	39	8	
12	0	0	0	0	497	514	0	526	39	7	
13	0	0	0	0	496	521	0	520	39	7	
14	0	0	0	0	493	545	0	515	39	8	
15	0	0	0	0	506	574	0	511	39	8	
0	0	0	0	0	509	583	0	507	39	8	
1	0	0	0	0	504	580	0	508	39	8	
2	0	0	0	0	506	559	0	515	39	8	
3	0	0	0	0	508	543	0	542	39	8	
4	0	0	0	0	502	525	0	553	39	7	
5	0	0	0	0	515	503	0	549	39	7	
6	0	0	0	0	518	495	0	543	39	9	
7	0	0	0	0	505	489	0	534	39	7	
8	0	0	0	0	498	488	0	527	39	8	
9	0	0	0	0	501	508	0	523	39	8	
10	0	0	0	0	494	526	0	536	39	8	
11	0	0	0	0	501	527	0	551	39	8	
12	0	0	0	0	500	537	0	549	39	8	
13	0	0	0	0	498	556	0	545	39	7	
14	0	0	0	0	496	568	0	556	39	9	
15	0	0	0	0	500	568	0	556	39	7	
0	0	0	0	0	505	547	0	545	39	8	
1	0	0	0	0	507	520	0	532	39	8	
2	0	0	0	0	508	507	0	523	39	8	
3	0	0	0	0	516	496	0	516	39	8	
4	0	0	0	0	509	498	0	508	38	8	
5	0	0	0	0	500	524	0	507	38	7	
6	0	0	0	0	515	529	0	513	38	7	
7	0	0	0	0	508	537	0	505	38	8	
8	0	0	0	0	503	539	0	504	38	8	
9	0	0	0	0	499	545	0	519	38	8	
10	0	0	0	0	497	559	0	539	38	8	
11	0	0	0	0	499	553	0	548	38	8	
12	0	0	0	0	496	563	0	566	38	8	
13	0	0	0	0	504	591	0	568	38	8	
14	0	0	0	0	495	601	0	572	38	7	
15	0	0	0	0	497	614	0	569	38	9	
0	0	0	0	0	510	626	0	558	38	8	
1	0	0	0	0	509	621	0	548	38	8	
2	0	0	0	0	504	622	0	535	38	8	
3	0	0	0	0	499	615	0	519	38	8	
4	0	0	0	0	512	592	0	512	38	8	
5	0	0	0	0	505	575	0	504	38	8	
6	0	0	0	0	510	558	0	501	38	7	
7	0	0	0	0	519	560	0	500	38	9	
8	0	0	0	0	511	567	0	498	38	8	
9	0	0	0	0	500	553	0	501	38	8	
10	0	0	0	0	500	544	0	506	38	8	
11	0	0	0	0	501	536	0	529	38	8	
12	0	0	0	0	498	540	0	542	38	8	
13	0	0	0	0	495	553	0	537	38	8	
14	0	0	0	0	498	555	0	542	38	8	
15	0	0	0	0	490	529	0	555	38	7	
0	0	0	0	0	496	523	0	547	38	8	
1	0	0	0	0	506	526	0	534	38	8	
2	0	0	0	0	517	491	0	519	38	8	
3	0	0	0	0	506	476	0	513	38	8	
4	0	0	0	0	509	496	0	505	38	8	
5	0	0	0	0	505	530	0	499	38	8	
6	0	0	0	0	502	539	0	495	38	8	
7	0	0	0	0	517	533	0	491	38	7	
8	0	0	0	0	508	545	0	489	38	9	
9	0	0	0	0	498	565	0	482	38	8	
10	0	0	0	0	497	583	0	483	38	8	
11	0	0	0	0	504	599	0	482	38	8	
12	0	0	0	0	504	632	0	481	38	8	
13	0	0	0	0	503	661	0	486	38	8	
14	0	0	0	0	502	671	0	486	38	8	
15	0	0	0	0	505	670	0	491	38	7	
0	0	0	0	0	496	657	0	486	38	9	
1	0	0	0	0	502	637	0	484	38	8	
2	0	0	0	0	504	630	0	487	38	8	
3	0	0	0	0	500	620	0	486	38	8	
4	0	0	0	0	508	619	0	493	38	8	
5	0	0	0	0	507	628	0	492	38	8	
6	0	0	0	0	501	643	0	490	38	8	
7	0	0	0	0	502	647	0	491	38	7	
8	0	0	0	0	513	630	0	486	39	7	
9	0	0	0	0	508	624	0	482	38	8	
10	0	0	0	0	499	624	0	480	38	8	
11	0	0	0	0	503	640	0	481	38	8	
12	0	0	0	0	499	651	0	486	38	8	
13	0	0	0	0	494	639	0	486	39	8	
14	0	0	0	0	498	626	0	490	39	8	
15	0	0	0	0	496	615	0	489	39	8	
0	0	0	0	0	506	617	0	486	39	7	
1	0	0	0	0	500	618	0	501	39	9	
2	0	0	0	0	504	629	0	491	39	8	
3	0	0	0	0	500	640	0	516	39	8	
4	0	0	0	0	500	642	0	523	39	8	
5	0	0	0	0	507	647	0	520	39	8	
6	0	0	0	0	509	640	0	512	39	8	
7	0	0	0	0	509	629	0	498	39	7	
8	0	0	0	0	505	585	0	490	39	7	
9	0	0	0	0	506	554	0	480	39	9	
10	0	0	0	0	514	543	0	475	39	7	
11	0	0	0	0	498	537	0	478	39	8	
12	0	0	0	0	500	526	0	489	39	8	
13	0	0	0	0	503	510	0	484	39	8	
14	0	0	0	0	496	505	0	481	39	8	
15	0	0	0	0	507	517	0	479	39	8	
0	0	0	0	0	502	535	0	475	39	7	
1	0	0	0	0	494	553	0	470	39	7	
2	0	0	0	0	491	577	0	472	39	8	
3	0	0	0	0	502	586	0	474	39	8	
4	0	0	0	0	515	589	0	477	39	8	
5	0	0	0	0	505	595	0	483	39	8	
6	0	0	0	0	507	582	0	483	39	8	
7	0	0	0	0	508	579	0	488	39	8	
8	0	0	0	0	502	606	0	480	39	7	
9	0	0	0	0	513	627	0	477	39	7	
10	0	0	0	0	512	617	0	480	39	9	
11	0	0	0	0	506	575	0	491	39	8	
12	0	0	0	0	504	552	0	520	39	8	
13	0	0	0	0	498	545	0	531	39	8	
14	0	0	0	0	502	552	0	526	39	8	
15	0	0	0	0	499	566	0	518	39	8	
0	0	0	0	0	496	573	0	524	39	8	
1	0	0	0	0	498	579	0	503	39	7	
2	0	0	0	0	495	588	0	495	39	9	
3	0	0	0	0	500	608	0	490	39	7	
4	0	0	0	0	504	635	0	491	39	8	
5	0	0	0	0	503	655	0	486	39	8	
6	0	0	0	0	509	668	0	489	39	8	
7	0	0	0	0	507	671	0	486	39	8	
8	0	0	0	0	509	658	0	482	39	8	
9	0	0	0	0	508	647	0	482	39	8	
10	0	0	0	0	511	644	0	482	39	7	
11	0	0	0	0	505	642	0	488	39	8	
12	0	0	0	0	500	646	0	486	38	8	
13	0	0	0	0	504	640	0	485	39	8	
14	0	0	0	0	501	623	0	491	39	8	
15	0	0	0	0	503	601	0	487	39	8	
0	0	0	0	0	504	588	0	485	39	8	
1	0	0	0	0	505	594	0	479	39	8	
2	0	0	0	0	495	600	0	476	39	7	
3	0	0	0	0	496	606	0	480	38	9	
4	0	0	0	0	499	609	0	482	38	8	
5	0	0	0	0	506	607	0	489	38	8	
6	0	0	0	0	506	593	0	488	38	8	
7	0	0	0	0	505	582	0	488	38	8	
8	0	0	0	0	509	581	0	486	39	8	
9	0	0	0	0	506	576	0	487	38	8	
10	0	0	0	0	504	560	0	514	38	7	
11	0	0	0	0	512	555	0	527	38	9	
12	0	0	0	0	508	555	0	524	38	7	
13	0	0	0	0	502	555	0	520	38	8	
14	0	0	0	0	495	553	0	524	38	8	
15	0	0	0	0	499	559	0	504	38	8	
0	0	0	0	0	504	556	0	490	39	8	
1	0	0	0	0	511	544	0	483	38	8	
2	0	0	0	0	506	532	0	485	38	8	
3	0	0	0	0	492	528	0	484	38	7	
4	0	0	0	0	492	531	0	487	38	8	
5	0	0	0	0	515	533	0	482	38	8	
6	0	0	0	0	504	532	0	480	38	8	
7	0	0	0	0	504	522	0	479	38	8	
8	0	0	0	0	508	507	0	473	39	8	
9	0	0	0	0	501	495	0	487	38	8	
10	0	0	0	0	494	488	0	476	38	7	
11	0	0	0	0	514	484	0	477	38	7	
12	0	0	0	0	511	474	0	483	38	9	
13	0	0	0	0	507	467	0	483	38	7	
14	0	0	0	0	496	468	0	485	38	8	
15	0	0	0	0	497	473	0	480	38	8	
0	0	0	0	0	500	479	0	476	39	8	
1	0	0	0	0	496	494	0	478	39	8	
2	0	0	0	0	507	512	0	478	38	7	
3	0	0	0	0	502	525	0	489	38	7	
4	0	0	0	0	491	531	0	514	38	9	
5	0	0	0	0	498	537	0	529	38	7	
6	0	0	0	0	503	530	0	540	38	8	
7	0	0	0	0	501	526	0	560	38	8	
8	0	0	0	0	508	519	0	563	39	8	
9	0	0	0	0	512	508	0	574	38	8	
10	0	0	0	0	503	495	0	573	38	8	
11	0	0	0	0	502	485	0	571	39	7	
12	0	0	0	0	513	473	0	576	38	7	
13	0	0	0	0	511	463	0	588	39	8	
14	0	0	0	0	508	448	0	575	38	7	
15	0	0	0	0	501	436	0	574	39	8	
0	0	0	0	0	500	433	0	572	39	8	
1	0	0	0	0	489	438	0	577	39	8	
2	0	0	0	0	498	453	0	569	39	8	
3	0	0	0	0	499	465	0	574	39	8	
4	0	0	0	0	503	463	0	575	39	7	
5	0	0	0	0	492	454	0	591	39	9	
6	0	0	0	0	496	434	0	577	39	7	
7	0	0	0	0	506	420	0	569	39	8	
8	0	0	0	0	507	430	0	572	39	8	
9	0	0	0	0	515	435	0	569	39	8	
10	0	0	0	0	512	437	0	566	39	8	
11	0	0	0	0	497	460	0	572	39	8	
12	0	0	0	0	501	483	0	567	39	7	
13	0	0	0	0	508	500	0	572	39	9	
14	0	0	0	0	520	515	0	568	39	8	
15	0	0	0	0	501	531	0	564	39	8	
0	0	0	0	0	494	552	0	568	39	8	
1	0	0	0	0	499	566	0	558	39	8	
2	0	0	0	0	502	562	0	564	39	8	
3	0	0	0	0	495	551	0	564	39	8	
4	0	0	0	0	505	538	0	564	39	8	
5	0	0	0	0	492	530	0	570	39	7	
6	0	0	0	0	494	527	0	557	39	8	
7	0	0	0	0	503	520	0	536	39	8	
8	0	0	0	0	506	519	0	516	39	8	
9	0	0	0	0	511	512	0	504	39	8	
10	0	0	0	0	503	505	0	491	39	8	
11	0	0	0	0	506	504	0	488	39	8	
12	0	0	0	0	505	505	0	481	39	8	
13	0	0	0	0	511	504	0	478	39	7	
14	0	0	0	0	504	504	0	478	39	9	
15	0	0	0	0	510	511	0	474	39	8	
0	0	0	0	0	506	522	0	476	39	8	
1	0	0	0	0	501	529	0	474	39	8	
2	0	0	0	0	499	526	0	473	39	8	
3	0	0	0	0	502	524	0	475	39	8	
4	0	0	0	0	498	524	0	472	39	8	
5	0	0	0	0	500	526	0	475	39	8	
6	0	0	0	0	496	538	0	472	39	9	
7	0	0	0	0	506	544	0	468	39	8	
8	0	0	0	0	497	544	0	467	39	8	
9	0	0	0	0	507	528	0	460	39	8	
10	0	0	0	0	505	517	0	464	39	8	
11	0	0	0	0	501	518	0	467	39	8	
12	0	0	0	0	511	516	0	466	39	8	
13	0	0	0	0	508	510	0	483	39	8	
14	0	0	0	0	512	500	0	507	39	7	
15	0	0	0	0	512	491	0	512	39	8	
0	0	0	0	0	504	487	0	499	39	8	
1	0	0	0	0	507	485	0	487	39	8	
2	0	0	0	0	500	479	0	483	39	8	
3	0	0	0	0	492	467	0	476	39	8	
4	0	0	0	0	501	472	0	477	39	8	
5	0	0	0	0	497	488	0	472	39	8	
6	0	0	0	0	495	506	0	470	39	8	
7	0	0	0	0	494	519	0	468	39	10	
8	0	0	0	0	500	531	0	462	39	8	
9	0	0	0	0	504	538	0	462	39	8	
10	0	0	0	0	506	542	0	460	39	8	
11	0	0	0	0	513	548	0	461	39	8	
12	0	0	0	0	502	549	0	464	38	8	
13	0	0	0	0	502	545	0	465	38	8	
14	0	0	0	0	509	546	0	470	38	8	
15	0	0	0	0	518	548	0	467	38	9	
0	0	0	0	0	514	551	0	464	39	8	
1	0	0	0	0	496	564	0	466	38	8	
2	0	0	0	0	500	575	0	465	38	8	
3	0	0	0	0	504	576	0	469	38	8	
4	0	0	0	0	497	562	0	468	38	8	
5	0	0	0	0	504	543	0	470	38	8	
6	0	0	0	0	503	524	0	486	38	8	
7	0	0	0	0	491	517	0	510	38	8	
8	0	0	0	0	495	509	0	515	38	8	
9	0	0	0	0	508	501	0	507	38	8	
10	0	0	0	0	513	499	0	499	38	8	
11	0	0	0	0	512	496	0	509	38	8	
12	0	0	0	0	502	502	0	527	38	8	
13	0	0	0	0	509	511	0	534	38	8	
14	0	0	0	0	499	513	0	549	38	8	
15	0	0	0	0	508	524	0	557	38	8	
0	0	0	0	0	510	538	0	558	38	9	
1	0	0	0	0	503	551	0	566	38	8	
2	0	0	0	0	497	559	0	561	38	8	
3	0	0	0	0	499	564	0	568	38	8	
4	0	0	0	0	509	565	0	566	38	8	
5	0	0	0	0	503	560	0	563	38	8	
6	0	0	0	0	502	562	0	569	38	8	
7	0	0	0	0	500	577	0	563	38	8	
8	0	0	0	0	495	588	0	567	39	9	
9	0	0	0	0	497	592	0	561	38	8	
10	0	0	0	0	506	584	0	559	38	8	
11	0	0	0	0	502	593	0	563	38	8	
12	0	0	0	0	502	603	0	559	38	8	
13	0	0	0	0	511	612	0	564	39	8	
14	0	0	0	0	512	616	0	559	39	8	
15	0	0	0	0	503	611	0	556	39	8	
0	0	0	0	0	513	599	0	559	39	7	
1	0	0	0	0	518	586	0	550	39	8	
2	0	0	0	0	503	571	0	556	39	8	
3	0	0	0	0	498	553	0	555	39	8	
4	0	0	0	0	504	543	0	553	39	8	
5	0	0	0	0	499	537	0	560	39	8	
6	0	0	0	0	498	535	0	555	39	8	
7	0	0	0	0	498	539	0	562	39	8	
8	0	0	0	0	494	551	0	558	39	8	
9	0	0	0	0	494	562	0	556	39	9	
10	0	0	0	0	496	568	0	563	39	8	
11	0	0	0	0	501	560	0	558	39	8	
12	0	0	0	0	505	546	0	562	39	8	
13	0	0	0	0	511	542	0	560	39	8	
14	0	0	0	0	513	547	0	556	39	8	
15	0	0	0	0	500	556	0	558	39	8	
0	0	0	0	0	507	565	0	548	39	8	
1	0	0	0	0	517	574	0	554	39	9	
2	0	0	0	0	517	571	0	553	39	8	
3	0	0	0	0	500	573	0	550	39	8	
4	0	0	0	0	506	576	0	539	39	8	
5	0	0	0	0	496	572	0	524	39	8	
6	0	0	0	0	493	564	0	511	39	8	
7	0	0	0	0	504	558	0	498	39	8	
8	0	0	0	0	496	558	0	493	39	8	
9	0	0	0	0	487	559	0	495	39	8	
10	0	0	0	0	494	563	0	515	39	8	
11	0	0	0	0	506	569	0	520	39	8	
12	0	0	0	0	499	566	0	514	39	8	
13	0	0	0	0	509	560	0	507	39	8	
14	0	0	0	0	511	547	0	497	39	8	
15	0	0	0	0	503	535	0	493	39	8	
0	0	0	0	0	499	525	0	487	39	8	
1	0	0	0	0	517	504	0	499	39	8	
2	0	0	0	0	512	482	0	517	39	9	
3	0	0	0	0	508	468	0	517	39	8	
4	0	0	0	0	499	463	0	527	39	8	
5	0	0	0	0	499	467	0	503	39	8	
6	0	0	0	0	505	473	0	491	39	8	
7	0	0	0	0	500	488	0	498	39	8	
8	0	0	0	0	503	504	0	508	39	8	
9	0	0	0	0	503	524	0	504	39	8	
10	0	0	0	0	500	549	0	496	39	9	
11	0	0	0	0	493	575	0	503	39	8	
12	0	0	0	0	500	600	0	500	39	8	
13	0	0	0	0	504	615	0	492	39	8	
14	0	0	0	0	508	620	0	487	39	8	
15	0	0	0	0	511	619	0	479	39	8	
0	0	0	0	0	511	618	0	472	39	8	
1	0	0	0	0	488	607	0	473	39	8	
2	0	0	0	0	514	591	0	476	39	8	
3	0	0	0	0	515	579	0	501	39	8	
4	0	0	0	0	505	578	0	514	39	8	
5	0	0	0	0	500	578	0	527	39	8	
6	0	0	0	0	497	575	0	540	39	8	
7	0	0	0	0	509	566	0	538	39	8	
8	0	0	0	0	508	559	0	543	39	8	
9	0	0	0	0	500	554	0	535	39	8	
10	0	0	0	0	494	560	0	537	39	8	
11	0	0	0	0	494	571	0	543	39	9	
12	0	0	0	0	495	579	0	538	38	8	
13	0	0	0	0	508	587	0	544	39	8	
14	0	0	0	0	509	589	0	536	38	8	
15	0	0	0	0	506	587	0	535	38	8	
0	0	0	0	0	506	583	0	533	39	8	
1	0	0	0	0	506	574	0	515	38	8	
2	0	0	0	0	499	571	0	500	38	8	
3	0	0	0	0	517	568	0	483	38	9	
4	0	0	0	0	515	566	0	475	38	8	
5	0	0	0	0	494	572	0	472	38	8	
6	0	0	0	0	498	572	0	463	38	8	
7	0	0	0	0	503	569	0	463	38	8	
8	0	0	0	0	503	579	0	460	38	8	
9	0	0	0	0	496	585	0	476	38	8	
10	0	0	0	0	501	593	0	499	38	8	
11	0	0	0	0	497	595	0	508	38	8	
12	0	0	0	0	490	585	0	527	38	8	
13	0	0	0	0	502	579	0	529	38	8	
14	0	0	0	0	509	567	0	533	38	8	
15	0	0	0	0	509	554	0	534	38	8	
0	0	0	0	0	514	541	0	527	38	8	
1	0	0	0	0	504	535	0	535	38	8	
2	0	0	0	0	503	537	0	527	38	8	
3	0	0	0	0	504	541	0	510	38	7	
4	0	0	0	0	514	552	0	496	38	9	
5	0	0	0	0	513	558	0	489	38	8	
6	0	0	0	0	499	565	0	493	38	8	
7	0	0	0	0	504	576	0	483	38	8	
8	0	0	0	0	499	583	0	494	38	8	
9	0	0	0	0	496	590	0	506	38	8	
10	0	0	0	0	503	590	0	503	38	8	
11	0	0	0	0	504	586	0	496	38	8	
12	0	0	0	0	490	585	0	487	38	9	
13	0	0	0	0	500	583	0	480	38	8	
14	0	0	0	0	508	583	0	482	38	8	
15	0	0	0	0	502	580	0	468	38	8	
0	0	0	0	0	504	574	0	467	38	8	
1	0	0	0	0	511	573	0	464	38	8	
2	0	0	0	0	503	568	0	480	38	8	
3	0	0	0	0	509	554	0	500	38	8	
4	0	0	0	0	515	534	0	500	38	7	
5	0	0	0	0	514	521	0	500	38	8	
6	0	0	0	0	500	515	0	512	38	8	
7	0	0	0	0	499	513	0	513	38	8	
8	0	0	0	0	502	514	0	518	38	8	
9	0	0	0	0	498	511	0	498	38	8	
10	0	0	0	0	499	512	0	501	38	8	
11	0	0	0	0	504	518	0	492	38	8	
12	0	0	0	0	499	529	0	482	37	8	
13	0	0	0	0	502	536	0	480	37	9	
14	0	0	0	0	497	548	0	472	38	8	
15	0	0	0	0	500	560	0	472	38	8	
0	0	0	0	0	508	571	0	468	38	8	
1	0	0	0	0	514	575	0	465	38	8	
2	0	0	0	0	509	574	0	466	38	8	
3	0	0	0	0	503	570	0	465	38	8	
4	0	0	0	0	505	567	0	473	37	8	
5	0	0	0	0	512	562	0	495	38	9	
6	0	0	0	0	513	564	0	510	38	8	
7	0	0	0	0	501	563	0	521	38	8	
8	0	0	0	0	499	559	0	534	38	8	
9	0	0	0	0	501	553	0	526	38	8	
10	0	0	0	0	498	546	0	512	38	8	
11	0	0	0	0	503	536	0	496	38	8	
12	0	0	0	0	500	526	0	489	38	8	
13	0	0	0	0	492	510	0	478	38	7	
14	0	0	0	0	495	493	0	477	38	8	
15	0	0	0	0	511	488	0	469	38	8	
0	0	0	0	0	512	492	0	466	38	8	
1	0	0	0	0	504	492	0	477	38	8	
2	0	0	0	0	504	490	0	500	38	8	
3	0	0	0	0	504	496	0	507	38	8	
4	0	0	0	0	506	513	0	502	38	8	
5	0	0	0	0	510	531	0	493	38	8	
6	0	0	0	0	506	547	0	490	38	9	
7	0	0	0	0	510	557	0	488	38	8	
8	0	0	0	0	499	562	0	502	38	8	
9	0	0	0	0	504	570	0	500	38	8	
10	0	0	0	0	503	582	0	495	38	8	
11	0	0	0	0	496	589	0	497	38	8	
12	0	0	0	0	509	588	0	496	38	8	
13	0	0	0	0	498	580	0	494	39	8	
14	0	0	0	0	489	571	0	488	39	9	
15	0	0	0	0	499	565	0	484	39	8	
0	0	0	0	0	506	557	0	482	39	8	
1	0	0	0	0	503	539	0	476	39	8	
2	0	0	0	0	497	531	0	482	39	8	
3	0	0	0	0	510	537	0	499	39	8	
4	0	0	0	0	514	552	0	510	39	8	
5	0	0	0	0	509	568	0	508	39	8	
6	0	0	0	0	521	582	0	500	39	8	
7	0	0	0	0	514	590	0	494	39	8	
8	0	0	0	0	497	597	0	486	39	8	
9	0	0	0	0	497	588	0	480	39	8	
10	0	0	0	0	493	583	0	479	39	8	
11	0	0	0	0	496	579	0	474	39	8	
12	0	0	0	0	496	577	0	476	39	8	
13	0	0	0	0	503	571	0	472	39	8	
14	0	0	0	0	504	563	0	471	39	8	
15	0	0	0	0	492	559	0	473	39	9	
0	0	0	0	0	492	554	0	468	39	8	
1	0	0	0	0	509	546	0	468	39	8	
2	0	0	0	0	504	536	0	466	39	8	
