# OpenSignals Text File Format. Version 1
# {"98:D3:41:FD:4F:0D": {"position": 0, "device": "bitalino_rev", "device name": "98:D3:41:FD:4F:0D", "device connection": "BTH98:D3:41:FD:4F:0D", "sampling rate": 1000, "resolution": [4, 1, 1, 1, 1, 10, 10, 10, 10, 6, 6], "firmware version": 1282, "comments": "", "keywords": "", "mode": 0, "sync interval": 2, "date": "2024-4-19", "time": "10:31:38.500", "channels": [1, 2, 3, 4, 5, 6], "sensor": ["RAW", "ECGBIT", "RAW", "RAW", "RAW", "RAW"], "label": ["A1", "A2", "A3", "A4", "A5", "A6"], "column": ["nSeq", "I1", "I2", "O1", "O2", "A1", "A2", "A3", "A4", "A5", "A6"], "special": [{}, {}, {}, {}, {}, {}], "digital IO": [0, 0, 1, 1], "convertedValues": 0}}
# EndOfHeader
0	0	0	0	0	502	480	0	541	39	4	
1	0	0	0	0	505	479	0	543	39	4	
2	0	0	0	0	504	482	0	540	39	4	
3	0	0	0	0	504	488	0	537	38	4	
4	0	0	0	0	503	507	0	537	39	4	
5	0	0	0	0	500	521	0	536	39	4	
6	0	0	0	0	500	528	0	537	39	4	
7	0	0	0	0	510	531	0	536	39	4	
8	0	0	0	0	506	542	0	546	39	4	
9	0	0	0	0	503	550	0	527	39	4	
10	0	0	0	0	501	561	0	524	39	4	
11	0	0	0	0	498	565	0	528	39	4	
12	0	0	0	0	503	563	0	528	39	4	
13	0	0	0	0	508	563	0	528	39	4	
14	0	0	0	0	510	564	0	530	39	4	
15	0	0	0	0	502	562	0	532	39	4	
0	0	0	0	0	504	559	0	529	39	4	
1	0	0	0	0	506	547	0	524	39	4	
2	0	0	0	0	504	534	0	524	39	4	
3	0	0	0	0	503	533	0	528	39	4	
4	0	0	0	0	504	535	0	537	39	4	
5	0	0	0	0	508	537	0	560	39	4	
6	0	0	0	0	495	535	0	587	39	4	
7	0	0	0	0	508	542	0	594	39	4	
8	0	0	0	0	504	545	0	596	39	4	
9	0	0	0	0	502	550	0	604	39	4	
10	0	0	0	0	502	551	0	598	39	4	
11	0	0	0	0	504	564	0	583	39	4	
12	0	0	0	0	507	568	0	567	39	4	
13	0	0	0	0	499	565	0	556	39	4	
14	0	0	0	0	507	560	0	546	39	4	
15	0	0	0	0	496	555	0	540	39	4	
0	0	0	0	0	502	551	0	532	39	4	
1	0	0	0	0	511	541	0	526	39	4	
2	0	0	0	0	505	537	0	524	39	4	
3	0	0	0	0	510	537	0	522	39	4	
4	0	0	0	0	510	551	0	525	39	4	
5	0	0	0	0	501	564	0	523	39	4	
6	0	0	0	0	505	573	0	522	39	4	
7	0	0	0	0	498	566	0	524	39	4	
8	0	0	0	0	496	556	0	515	39	4	
9	0	0	0	0	500	550	0	513	39	4	
10	0	0	0	0	499	568	0	512	39	4	
11	0	0	0	0	505	582	0	512	39	4	
12	0	0	0	0	503	578	0	515	39	4	
13	0	0	0	0	502	574	0	517	39	4	
14	0	0	0	0	511	567	0	522	39	4	
15	0	0	0	0	503	558	0	522	39	4	
0	0	0	0	0	509	569	0	518	39	4	
1	0	0	0	0	500	581	0	515	39	4	
2	0	0	0	0	496	580	0	513	39	4	
3	0	0	0	0	495	575	0	515	39	4	
4	0	0	0	0	504	568	0	515	39	4	
5	0	0	0	0	505	558	0	514	39	4	
6	0	0	0	0	501	554	0	516	39	4	
7	0	0	0	0	504	556	0	522	39	4	
8	0	0	0	0	505	555	0	545	39	4	
9	0	0	0	0	507	552	0	556	39	4	
10	0	0	0	0	508	555	0	553	39	4	
11	0	0	0	0	501	559	0	546	39	4	
12	0	0	0	0	507	558	0	548	39	4	
13	0	0	0	0	498	562	0	568	39	4	
14	0	0	0	0	496	572	0	573	39	4	
15	0	0	0	0	504	573	0	585	39	4	
0	0	0	0	0	506	568	0	599	39	4	
1	0	0	0	0	506	563	0	598	39	4	
2	0	0	0	0	502	568	0	608	39	4	
3	0	0	0	0	500	579	0	600	39	4	
4	0	0	0	0	504	584	0	600	39	4	
5	0	0	0	0	512	581	0	601	39	4	
6	0	0	0	0	506	564	0	594	39	4	
7	0	0	0	0	501	551	0	600	39	4	
8	0	0	0	0	508	548	0	593	39	4	
9	0	0	0	0	501	551	0	583	39	4	
10	0	0	0	0	507	560	0	569	39	4	
11	0	0	0	0	499	565	0	553	39	4	
12	0	0	0	0	498	575	0	539	39	4	
13	0	0	0	0	496	592	0	530	39	4	
14	0	0	0	0	508	591	0	521	39	4	
15	0	0	0	0	502	580	0	520	39	4	
0	0	0	0	0	505	572	0	515	39	4	
1	0	0	0	0	498	575	0	513	39	4	
2	0	0	0	0	501	583	0	515	39	4	
3	0	0	0	0	512	580	0	512	39	4	
4	0	0	0	0	504	575	0	526	39	4	
5	0	0	0	0	499	567	0	548	39	4	
6	0	0	0	0	500	561	0	552	39	4	
7	0	0	0	0	504	559	0	548	39	4	
8	0	0	0	0	506	565	0	557	39	4	
9	0	0	0	0	508	574	0	567	39	4	
10	0	0	0	0	502	579	0	560	39	4	
11	0	0	0	0	501	594	0	549	39	4	
12	0	0	0	0	497	611	0	538	39	4	
13	0	0	0	0	502	620	0	529	39	4	
14	0	0	0	0	500	622	0	525	39	4	
15	0	0	0	0	512	624	0	528	39	4	
0	0	0	0	0	506	608	0	546	39	4	
1	0	0	0	0	496	599	0	550	39	4	
2	0	0	0	0	512	602	0	544	39	4	
3	0	0	0	0	495	614	0	546	39	4	
4	0	0	0	0	501	617	0	545	39	4	
5	0	0	0	0	505	618	0	539	39	4	
6	0	0	0	0	507	619	0	531	39	4	
7	0	0	0	0	512	613	0	524	39	4	
8	0	0	0	0	505	616	0	520	39	4	
9	0	0	0	0	492	622	0	515	39	4	
10	0	0	0	0	500	630	0	514	39	4	
11	0	0	0	0	509	633	0	534	38	4	
12	0	0	0	0	505	628	0	546	39	4	
13	0	0	0	0	503	624	0	544	39	4	
14	0	0	0	0	501	627	0	538	39	4	
15	0	0	0	0	501	626	0	532	39	4	
0	0	0	0	0	502	629	0	544	39	4	
1	0	0	0	0	499	631	0	540	39	4	
2	0	0	0	0	502	627	0	558	39	4	
3	0	0	0	0	505	617	0	558	39	4	
4	0	0	0	0	505	608	0	549	39	4	
5	0	0	0	0	506	596	0	537	39	4	
6	0	0	0	0	512	584	0	527	39	4	
7	0	0	0	0	506	592	0	534	39	4	
8	0	0	0	0	500	596	0	544	39	4	
9	0	0	0	0	499	594	0	540	39	4	
10	0	0	0	0	508	586	0	531	39	4	
11	0	0	0	0	513	573	0	523	38	4	
12	0	0	0	0	500	562	0	520	39	4	
13	0	0	0	0	500	561	0	513	39	4	
14	0	0	0	0	503	581	0	510	39	4	
15	0	0	0	0	502	598	0	508	39	4	
0	0	0	0	0	500	603	0	503	39	4	
1	0	0	0	0	504	603	0	517	39	4	
2	0	0	0	0	505	587	0	539	39	4	
3	0	0	0	0	496	569	0	546	39	4	
4	0	0	0	0	503	580	0	542	39	4	
5	0	0	0	0	500	583	0	545	39	4	
6	0	0	0	0	507	575	0	539	39	4	
7	0	0	0	0	506	567	0	537	39	4	
8	0	0	0	0	508	560	0	552	39	4	
9	0	0	0	0	504	558	0	555	39	4	
10	0	0	0	0	499	554	0	543	39	4	
11	0	0	0	0	502	548	0	534	39	4	
12	0	0	0	0	505	540	0	523	39	4	
13	0	0	0	0	502	537	0	518	39	4	
14	0	0	0	0	506	554	0	515	39	4	
15	0	0	0	0	503	561	0	510	39	4	
0	0	0	0	0	501	557	0	522	39	4	
1	0	0	0	0	511	563	0	540	39	4	
2	0	0	0	0	497	562	0	543	39	4	
3	0	0	0	0	496	547	0	536	39	4	
4	0	0	0	0	507	525	0	528	39	4	
5	0	0	0	0	500	506	0	523	39	4	
6	0	0	0	0	504	492	0	515	39	4	
7	0	0	0	0	511	481	0	511	39	4	
8	0	0	0	0	502	487	0	510	39	4	
9	0	0	0	0	507	496	0	527	39	4	
10	0	0	0	0	494	505	0	546	39	4	
11	0	0	0	0	502	500	0	547	39	4	
12	0	0	0	0	497	476	0	538	39	4	
13	0	0	0	0	504	463	0	529	39	4	
14	0	0	0	0	507	469	0	517	39	4	
15	0	0	0	0	503	487	0	524	39	4	
0	0	0	0	0	499	501	0	535	39	4	
1	0	0	0	0	503	504	0	544	39	4	
2	0	0	0	0	508	510	0	526	39	4	
3	0	0	0	0	508	516	0	530	38	4	
4	0	0	0	0	512	516	0	526	39	4	
5	0	0	0	0	502	506	0	518	39	4	
6	0	0	0	0	500	491	0	513	39	4	
7	0	0	0	0	502	472	0	509	39	4	
8	0	0	0	0	509	452	0	504	39	4	
9	0	0	0	0	502	443	0	506	39	4	
10	0	0	0	0	500	438	0	509	39	4	
11	0	0	0	0	503	436	0	535	39	4	
12	0	0	0	0	504	439	0	547	39	4	
13	0	0	0	0	508	438	0	543	39	4	
14	0	0	0	0	502	441	0	536	39	4	
15	0	0	0	0	508	446	0	526	39	4	
0	0	0	0	0	506	453	0	524	39	4	
1	0	0	0	0	500	455	0	536	39	4	
2	0	0	0	0	515	457	0	544	39	4	
3	0	0	0	0	496	458	0	541	39	4	
4	0	0	0	0	501	460	0	534	39	4	
5	0	0	0	0	507	462	0	526	39	4	
6	0	0	0	0	497	458	0	519	39	4	
7	0	0	0	0	508	447	0	513	39	4	
8	0	0	0	0	508	441	0	520	39	4	
9	0	0	0	0	507	438	0	535	39	4	
10	0	0	0	0	502	443	0	535	39	4	
11	0	0	0	0	501	445	0	528	39	4	
12	0	0	0	0	500	440	0	518	39	4	
13	0	0	0	0	499	440	0	513	39	4	
14	0	0	0	0	497	444	0	507	39	4	
15	0	0	0	0	502	451	0	503	39	4	
0	0	0	0	0	506	455	0	500	39	4	
1	0	0	0	0	499	454	0	516	39	4	
2	0	0	0	0	504	446	0	537	39	4	
3	0	0	0	0	505	443	0	537	39	4	
4	0	0	0	0	506	451	0	531	39	4	
5	0	0	0	0	502	456	0	548	39	4	
6	0	0	0	0	510	457	0	524	39	4	
7	0	0	0	0	507	463	0	514	39	4	
8	0	0	0	0	504	462	0	511	39	4	
9	0	0	0	0	500	455	0	528	39	4	
10	0	0	0	0	505	449	0	532	39	4	
11	0	0	0	0	507	449	0	538	38	4	
12	0	0	0	0	501	457	0	533	39	4	
13	0	0	0	0	508	454	0	522	39	4	
14	0	0	0	0	497	439	0	512	39	4	
15	0	0	0	0	499	428	0	504	39	4	
0	0	0	0	0	498	428	0	497	39	4	
1	0	0	0	0	503	443	0	508	39	4	
2	0	0	0	0	499	459	0	528	39	4	
3	0	0	0	0	497	465	0	532	39	4	
4	0	0	0	0	508	468	0	527	39	4	
5	0	0	0	0	508	464	0	516	39	4	
6	0	0	0	0	508	458	0	512	39	4	
7	0	0	0	0	503	451	0	504	39	4	
8	0	0	0	0	505	449	0	500	39	4	
9	0	0	0	0	503	443	0	496	39	4	
10	0	0	0	0	505	433	0	494	39	4	
11	0	0	0	0	508	435	0	504	39	4	
12	0	0	0	0	502	441	0	528	39	4	
13	0	0	0	0	501	448	0	533	39	4	
14	0	0	0	0	503	450	0	528	39	4	
15	0	0	0	0	503	446	0	537	39	4	
0	0	0	0	0	499	445	0	545	39	4	
1	0	0	0	0	504	463	0	536	39	4	
2	0	0	0	0	501	476	0	540	39	4	
3	0	0	0	0	497	481	0	527	39	4	
4	0	0	0	0	502	481	0	518	39	4	
5	0	0	0	0	508	481	0	514	39	4	
6	0	0	0	0	505	472	0	507	39	4	
7	0	0	0	0	510	461	0	503	39	4	
8	0	0	0	0	503	452	0	497	39	4	
9	0	0	0	0	513	460	0	494	39	4	
10	0	0	0	0	505	455	0	507	39	4	
11	0	0	0	0	488	461	0	528	39	4	
12	0	0	0	0	504	465	0	534	39	4	
13	0	0	0	0	506	474	0	530	39	4	
14	0	0	0	0	508	486	0	519	39	4	
15	0	0	0	0	505	477	0	515	39	4	
0	0	0	0	0	503	478	0	508	39	4	
1	0	0	0	0	504	485	0	507	39	4	
2	0	0	0	0	505	493	0	525	39	4	
3	0	0	0	0	505	491	0	534	39	4	
4	0	0	0	0	499	481	0	527	39	4	
5	0	0	0	0	506	467	0	518	39	4	
6	0	0	0	0	496	457	0	511	39	4	
7	0	0	0	0	506	460	0	505	39	4	
8	0	0	0	0	505	463	0	514	39	4	
9	0	0	0	0	501	467	0	527	39	4	
10	0	0	0	0	506	460	0	526	39	4	
11	0	0	0	0	506	445	0	517	39	4	
12	0	0	0	0	500	434	0	510	39	4	
13	0	0	0	0	507	424	0	501	39	4	
14	0	0	0	0	505	424	0	500	39	4	
15	0	0	0	0	499	441	0	495	39	4	
0	0	0	0	0	496	455	0	500	39	4	
1	0	0	0	0	503	461	0	515	39	4	
2	0	0	0	0	513	463	0	524	39	4	
3	0	0	0	0	497	467	0	522	39	4	
4	0	0	0	0	508	476	0	521	39	4	
5	0	0	0	0	499	481	0	523	39	4	
6	0	0	0	0	506	480	0	514	39	4	
7	0	0	0	0	509	468	0	523	39	4	
8	0	0	0	0	503	464	0	535	39	4	
9	0	0	0	0	506	465	0	529	39	4	
10	0	0	0	0	504	472	0	521	39	4	
11	0	0	0	0	498	473	0	508	39	4	
12	0	0	0	0	506	472	0	498	39	4	
13	0	0	0	0	497	471	0	495	39	4	
14	0	0	0	0	506	460	0	488	39	4	
15	0	0	0	0	509	455	0	492	39	4	
0	0	0	0	0	503	450	0	484	39	4	
1	0	0	0	0	502	449	0	479	39	4	
2	0	0	0	0	503	449	0	483	39	4	
3	0	0	0	0	504	454	0	482	39	4	
4	0	0	0	0	499	465	0	487	39	4	
5	0	0	0	0	496	468	0	504	39	4	
6	0	0	0	0	499	468	0	487	39	4	
7	0	0	0	0	499	475	0	490	39	4	
8	0	0	0	0	498	479	0	484	39	4	
9	0	0	0	0	504	483	0	484	39	4	
10	0	0	0	0	501	483	0	479	39	4	
11	0	0	0	0	499	479	0	478	39	4	
12	0	0	0	0	508	479	0	484	39	4	
13	0	0	0	0	508	479	0	484	39	4	
14	0	0	0	0	508	486	0	488	39	4	
15	0	0	0	0	505	490	0	486	39	4	
0	0	0	0	0	508	484	0	483	39	4	
1	0	0	0	0	509	471	0	483	39	4	
2	0	0	0	0	508	468	0	481	39	4	
3	0	0	0	0	496	472	0	487	39	4	
4	0	0	0	0	502	475	0	487	39	4	
5	0	0	0	0	500	481	0	512	39	4	
6	0	0	0	0	502	480	0	528	39	4	
7	0	0	0	0	499	469	0	527	39	4	
8	0	0	0	0	504	463	0	518	39	4	
9	0	0	0	0	503	464	0	504	39	4	
10	0	0	0	0	515	469	0	494	39	4	
11	0	0	0	0	504	479	0	493	39	4	
12	0	0	0	0	498	476	0	487	39	4	
13	0	0	0	0	505	460	0	489	39	4	
14	0	0	0	0	499	456	0	489	39	4	
15	0	0	0	0	513	461	0	485	39	4	
0	0	0	0	0	496	465	0	482	39	4	
1	0	0	0	0	500	463	0	476	39	4	
2	0	0	0	0	496	462	0	479	39	4	
3	0	0	0	0	501	469	0	481	38	4	
4	0	0	0	0	504	483	0	482	39	4	
5	0	0	0	0	501	496	0	488	39	4	
6	0	0	0	0	499	501	0	488	39	4	
7	0	0	0	0	499	503	0	494	39	4	
8	0	0	0	0	505	500	0	488	39	4	
9	0	0	0	0	513	488	0	484	39	4	
10	0	0	0	0	503	492	0	487	39	4	
11	0	0	0	0	503	504	0	487	39	4	
12	0	0	0	0	504	504	0	494	39	4	
13	0	0	0	0	502	484	0	495	39	4	
14	0	0	0	0	503	464	0	514	39	4	
15	0	0	0	0	499	448	0	531	39	4	
0	0	0	0	0	502	432	0	529	39	4	
1	0	0	0	0	502	433	0	521	39	4	
2	0	0	0	0	500	462	0	510	39	4	
3	0	0	0	0	505	483	0	504	39	4	
4	0	0	0	0	501	500	0	501	39	4	
5	0	0	0	0	499	512	0	497	39	4	
6	0	0	0	0	500	511	0	500	39	4	
7	0	0	0	0	498	514	0	495	39	4	
8	0	0	0	0	510	517	0	493	39	4	
9	0	0	0	0	505	515	0	493	39	4	
10	0	0	0	0	502	511	0	492	39	4	
11	0	0	0	0	503	512	0	498	39	4	
12	0	0	0	0	499	515	0	498	39	4	
13	0	0	0	0	508	508	0	515	39	4	
14	0	0	0	0	501	495	0	503	39	4	
15	0	0	0	0	508	487	0	497	39	4	
0	0	0	0	0	503	483	0	498	39	4	
1	0	0	0	0	508	478	0	494	39	4	
2	0	0	0	0	508	476	0	492	39	4	
3	0	0	0	0	502	477	0	496	39	4	
4	0	0	0	0	498	477	0	496	39	4	
5	0	0	0	0	507	487	0	506	39	4	
6	0	0	0	0	499	508	0	530	39	4	
7	0	0	0	0	511	524	0	543	39	4	
8	0	0	0	0	497	526	0	555	39	4	
9	0	0	0	0	512	527	0	568	39	4	
10	0	0	0	0	503	520	0	567	39	4	
11	0	0	0	0	505	507	0	578	39	4	
12	0	0	0	0	505	496	0	579	39	4	
13	0	0	0	0	506	480	0	597	39	4	
14	0	0	0	0	499	465	0	588	39	4	
15	0	0	0	0	503	459	0	583	39	4	
0	0	0	0	0	499	452	0	588	39	4	
1	0	0	0	0	506	458	0	583	39	4	
2	0	0	0	0	501	463	0	579	39	4	
3	0	0	0	0	496	471	0	588	39	4	
4	0	0	0	0	512	468	0	583	39	4	
5	0	0	0	0	506	461	0	588	39	4	
6	0	0	0	0	508	472	0	583	39	4	
7	0	0	0	0	504	481	0	575	39	4	
8	0	0	0	0	498	483	0	579	39	4	
9	0	0	0	0	507	483	0	571	39	4	
10	0	0	0	0	506	491	0	575	39	4	
11	0	0	0	0	507	494	0	577	39	4	
12	0	0	0	0	501	492	0	574	39	4	
13	0	0	0	0	500	490	0	580	39	4	
14	0	0	0	0	503	484	0	571	39	4	
15	0	0	0	0	505	470	0	575	39	4	
0	0	0	0	0	513	459	0	575	39	4	
1	0	0	0	0	507	455	0	560	39	4	
2	0	0	0	0	499	451	0	541	39	4	
3	0	0	0	0	497	448	0	525	39	4	
4	0	0	0	0	497	457	0	512	39	4	
5	0	0	0	0	507	470	0	502	39	4	
6	0	0	0	0	500	474	0	501	39	4	
7	0	0	0	0	499	471	0	494	39	4	
8	0	0	0	0	505	470	0	499	39	4	
9	0	0	0	0	502	465	0	514	39	4	
10	0	0	0	0	504	462	0	524	39	4	
11	0	0	0	0	504	463	0	523	39	4	
12	0	0	0	0	505	475	0	515	39	4	
13	0	0	0	0	499	488	0	509	39	4	
14	0	0	0	0	507	499	0	502	39	4	
15	0	0	0	0	508	499	0	495	39	4	
0	0	0	0	0	504	488	0	503	39	4	
1	0	0	0	0	497	478	0	516	39	4	
2	0	0	0	0	503	480	0	518	39	4	
3	0	0	0	0	502	487	0	513	39	4	
4	0	0	0	0	504	481	0	521	39	4	
5	0	0	0	0	504	477	0	520	39	4	
6	0	0	0	0	504	473	0	508	39	4	
7	0	0	0	0	507	464	0	499	39	4	
8	0	0	0	0	508	457	0	494	39	4	
9	0	0	0	0	504	459	0	491	39	4	
10	0	0	0	0	501	466	0	502	39	4	
11	0	0	0	0	498	475	0	522	39	4	
12	0	0	0	0	500	479	0	528	39	4	
13	0	0	0	0	506	483	0	524	39	4	
14	0	0	0	0	505	478	0	513	39	4	
15	0	0	0	0	505	478	0	508	39	4	
0	0	0	0	0	508	477	0	499	39	4	
1	0	0	0	0	503	476	0	498	39	4	
2	0	0	0	0	501	475	0	516	39	4	
3	0	0	0	0	512	479	0	526	39	4	
4	0	0	0	0	499	499	0	522	39	4	
5	0	0	0	0	506	498	0	520	39	4	
6	0	0	0	0	504	484	0	524	39	4	
7	0	0	0	0	498	469	0	514	39	4	
8	0	0	0	0	500	465	0	501	39	4	
9	0	0	0	0	505	476	0	496	39	4	
10	0	0	0	0	505	488	0	496	39	4	
11	0	0	0	0	506	487	0	519	39	4	
12	0	0	0	0	501	482	0	531	39	4	
13	0	0	0	0	505	486	0	525	39	4	
14	0	0	0	0	502	491	0	519	39	4	
15	0	0	0	0	501	490	0	508	39	4	
0	0	0	0	0	502	490	0	504	39	4	
1	0	0	0	0	504	485	0	499	39	4	
2	0	0	0	0	504	470	0	513	39	4	
3	0	0	0	0	502	455	0	527	39	4	
4	0	0	0	0	499	448	0	525	39	4	
5	0	0	0	0	503	447	0	523	39	4	
6	0	0	0	0	497	445	0	534	39	4	
7	0	0	0	0	505	448	0	537	39	4	
8	0	0	0	0	502	455	0	527	39	4	
9	0	0	0	0	510	467	0	521	39	4	
10	0	0	0	0	501	485	0	521	39	4	
11	0	0	0	0	506	497	0	513	39	4	
12	0	0	0	0	505	504	0	504	39	4	
13	0	0	0	0	507	512	0	501	39	4	
14	0	0	0	0	510	521	0	496	39	4	
15	0	0	0	0	508	519	0	495	39	4	
0	0	0	0	0	505	505	0	488	39	4	
1	0	0	0	0	507	492	0	484	39	4	
2	0	0	0	0	502	480	0	487	39	4	
3	0	0	0	0	502	471	0	481	39	4	
4	0	0	0	0	498	467	0	487	39	4	
5	0	0	0	0	499	469	0	507	39	4	
6	0	0	0	0	508	470	0	522	39	4	
7	0	0	0	0	495	471	0	534	39	4	
8	0	0	0	0	504	472	0	547	39	4	
9	0	0	0	0	500	479	0	542	39	4	
10	0	0	0	0	502	508	0	527	39	4	
11	0	0	0	0	497	537	0	512	39	4	
12	0	0	0	0	497	549	0	511	39	4	
13	0	0	0	0	503	558	0	508	39	4	
14	0	0	0	0	500	566	0	507	39	4	
15	0	0	0	0	510	560	0	502	39	4	
0	0	0	0	0	511	550	0	496	39	4	
1	0	0	0	0	508	546	0	498	39	4	
2	0	0	0	0	502	547	0	495	39	4	
3	0	0	0	0	505	543	0	500	38	4	
4	0	0	0	0	496	537	0	520	39	4	
5	0	0	0	0	507	536	0	551	39	4	
6	0	0	0	0	509	524	0	547	39	4	
7	0	0	0	0	499	522	0	559	39	4	
8	0	0	0	0	506	527	0	552	39	4	
9	0	0	0	0	501	542	0	539	39	4	
10	0	0	0	0	506	558	0	536	39	4	
11	0	0	0	0	498	574	0	528	39	4	
12	0	0	0	0	497	579	0	516	39	4	
13	0	0	0	0	501	583	0	509	39	4	
14	0	0	0	0	504	588	0	503	39	4	
15	0	0	0	0	504	583	0	497	39	4	
0	0	0	0	0	505	571	0	497	39	4	
1	0	0	0	0	508	555	0	499	39	4	
2	0	0	0	0	505	542	0	521	39	4	
3	0	0	0	0	504	524	0	527	39	4	
4	0	0	0	0	510	503	0	520	39	4	
5	0	0	0	0	505	487	0	515	39	4	
6	0	0	0	0	497	467	0	504	39	4	
7	0	0	0	0	502	457	0	504	39	4	
8	0	0	0	0	498	465	0	518	39	4	
9	0	0	0	0	508	464	0	526	39	4	
10	0	0	0	0	507	465	0	523	39	4	
11	0	0	0	0	503	468	0	515	39	4	
12	0	0	0	0	504	466	0	509	39	4	
13	0	0	0	0	493	457	0	501	39	4	
14	0	0	0	0	506	446	0	496	39	4	
15	0	0	0	0	503	428	0	496	39	4	
0	0	0	0	0	501	409	0	496	39	4	
1	0	0	0	0	507	401	0	518	39	4	
2	0	0	0	0	504	399	0	523	39	4	
3	0	0	0	0	507	397	0	516	38	4	
4	0	0	0	0	506	379	0	513	39	4	
5	0	0	0	0	499	350	0	504	39	4	
6	0	0	0	0	510	326	0	500	39	4	
7	0	0	0	0	502	307	0	496	39	4	
8	0	0	0	0	508	294	0	492	39	4	
9	0	0	0	0	499	298	0	500	39	4	
10	0	0	0	0	503	312	0	522	39	4	
11	0	0	0	0	497	324	0	524	39	4	
12	0	0	0	0	504	336	0	520	39	4	
13	0	0	0	0	507	343	0	524	39	4	
14	0	0	0	0	503	352	0	519	39	4	
15	0	0	0	0	505	353	0	516	39	4	
0	0	0	0	0	499	355	0	536	39	4	
1	0	0	0	0	510	364	0	540	39	4	
2	0	0	0	0	502	366	0	530	39	4	
3	0	0	0	0	504	368	0	522	39	4	
4	0	0	0	0	502	368	0	510	39	4	
5	0	0	0	0	502	361	0	505	39	4	
6	0	0	0	0	499	359	0	499	39	4	
7	0	0	0	0	511	367	0	495	39	4	
8	0	0	0	0	497	374	0	498	39	4	
9	0	0	0	0	511	377	0	499	39	4	
10	0	0	0	0	500	383	0	524	39	4	
11	0	0	0	0	504	386	0	531	39	4	
12	0	0	0	0	510	393	0	525	39	4	
13	0	0	0	0	501	399	0	518	39	4	
14	0	0	0	0	508	411	0	509	39	4	
15	0	0	0	0	500	423	0	504	39	4	
0	0	0	0	0	508	432	0	517	39	4	
1	0	0	0	0	504	436	0	527	39	4	
2	0	0	0	0	504	448	0	525	39	4	
3	0	0	0	0	510	460	0	519	39	4	
4	0	0	0	0	501	460	0	514	39	4	
5	0	0	0	0	497	445	0	512	39	4	
6	0	0	0	0	510	435	0	505	39	4	
7	0	0	0	0	502	437	0	507	39	4	
8	0	0	0	0	504	441	0	510	39	4	
9	0	0	0	0	507	445	0	531	39	4	
10	0	0	0	0	509	452	0	538	39	4	
11	0	0	0	0	512	457	0	532	38	4	
12	0	0	0	0	503	457	0	534	39	4	
13	0	0	0	0	499	466	0	532	39	4	
14	0	0	0	0	496	500	0	525	39	4	
15	0	0	0	0	501	524	0	519	39	4	
0	0	0	0	0	502	535	0	513	39	4	
1	0	0	0	0	508	536	0	521	39	4	
2	0	0	0	0	497	543	0	541	39	4	
3	0	0	0	0	500	549	0	544	38	4	
4	0	0	0	0	508	551	0	537	39	4	
5	0	0	0	0	506	550	0	527	39	4	
6	0	0	0	0	505	550	0	520	39	4	
7	0	0	0	0	500	543	0	512	39	4	
8	0	0	0	0	503	541	0	510	39	4	
9	0	0	0	0	503	545	0	507	39	4	
10	0	0	0	0	500	547	0	524	39	4	
11	0	0	0	0	494	555	0	542	39	4	
12	0	0	0	0	502	571	0	544	39	4	
13	0	0	0	0	509	587	0	539	39	4	
14	0	0	0	0	499	583	0	551	39	4	
15	0	0	0	0	503	587	0	554	39	4	
0	0	0	0	0	501	588	0	542	39	4	
1	0	0	0	0	503	586	0	527	39	4	
2	0	0	0	0	497	583	0	518	39	4	
3	0	0	0	0	514	579	0	510	39	4	
4	0	0	0	0	501	573	0	504	39	4	
5	0	0	0	0	503	557	0	503	39	4	
6	0	0	0	0	502	542	0	499	39	4	
7	0	0	0	0	506	543	0	500	39	4	
8	0	0	0	0	508	544	0	497	39	4	
9	0	0	0	0	509	555	0	514	39	4	
10	0	0	0	0	498	568	0	536	39	4	
11	0	0	0	0	507	576	0	537	39	4	
12	0	0	0	0	510	572	0	532	39	4	
13	0	0	0	0	505	570	0	535	39	4	
14	0	0	0	0	507	567	0	525	39	4	
15	0	0	0	0	508	568	0	529	39	4	
0	0	0	0	0	494	577	0	545	39	4	
1	0	0	0	0	501	579	0	540	39	4	
2	0	0	0	0	502	575	0	530	39	4	
3	0	0	0	0	495	574	0	519	39	4	
4	0	0	0	0	501	575	0	512	39	4	
5	0	0	0	0	502	575	0	504	39	4	
6	0	0	0	0	506	578	0	498	39	4	
7	0	0	0	0	507	573	0	495	39	4	
8	0	0	0	0	508	560	0	492	39	4	
9	0	0	0	0	510	547	0	504	39	4	
10	0	0	0	0	496	536	0	527	39	4	
11	0	0	0	0	492	535	0	534	39	4	
12	0	0	0	0	509	538	0	529	39	4	
13	0	0	0	0	507	543	0	518	39	4	
14	0	0	0	0	502	546	0	511	39	4	
15	0	0	0	0	506	546	0	509	39	4	
0	0	0	0	0	500	555	0	524	39	4	
1	0	0	0	0	508	568	0	524	39	4	
2	0	0	0	0	507	567	0	515	39	4	
3	0	0	0	0	501	567	0	510	39	4	
4	0	0	0	0	506	560	0	501	39	4	
5	0	0	0	0	499	556	0	496	39	4	
6	0	0	0	0	507	561	0	491	39	4	
7	0	0	0	0	507	567	0	488	39	4	
8	0	0	0	0	504	562	0	499	39	4	
9	0	0	0	0	505	550	0	532	39	4	
10	0	0	0	0	508	541	0	518	39	4	
11	0	0	0	0	499	539	0	512	39	4	
12	0	0	0	0	511	532	0	520	39	4	
13	0	0	0	0	498	536	0	514	39	4	
14	0	0	0	0	499	548	0	503	39	4	
15	0	0	0	0	504	557	0	496	39	4	
0	0	0	0	0	500	560	0	488	39	4	
1	0	0	0	0	505	561	0	483	39	4	
2	0	0	0	0	496	563	0	496	39	4	
3	0	0	0	0	500	560	0	517	39	4	
4	0	0	0	0	504	563	0	523	39	4	
5	0	0	0	0	501	567	0	518	39	4	
6	0	0	0	0	504	566	0	526	39	4	
7	0	0	0	0	512	568	0	533	39	4	
8	0	0	0	0	499	560	0	527	39	4	
9	0	0	0	0	504	556	0	515	39	4	
10	0	0	0	0	502	558	0	504	39	4	
11	0	0	0	0	508	560	0	492	39	4	
12	0	0	0	0	507	571	0	489	39	4	
13	0	0	0	0	492	575	0	481	39	4	
14	0	0	0	0	505	570	0	483	39	4	
15	0	0	0	0	508	568	0	479	39	4	
0	0	0	0	0	510	572	0	475	39	4	
1	0	0	0	0	499	590	0	489	39	4	
2	0	0	0	0	500	608	0	512	39	4	
3	0	0	0	0	501	608	0	521	38	4	
4	0	0	0	0	508	600	0	528	39	4	
5	0	0	0	0	504	600	0	539	39	4	
6	0	0	0	0	502	602	0	546	39	4	
7	0	0	0	0	504	618	0	537	39	4	
8	0	0	0	0	505	621	0	525	39	4	
9	0	0	0	0	503	616	0	511	39	4	
10	0	0	0	0	508	614	0	496	39	4	
11	0	0	0	0	500	619	0	491	38	4	
12	0	0	0	0	504	618	0	481	39	4	
13	0	0	0	0	497	621	0	480	39	4	
14	0	0	0	0	502	628	0	477	39	4	
15	0	0	0	0	509	635	0	474	39	4	
0	0	0	0	0	504	631	0	480	39	4	
1	0	0	0	0	504	620	0	483	39	4	
2	0	0	0	0	496	614	0	508	39	4	
3	0	0	0	0	506	609	0	516	39	4	
4	0	0	0	0	502	609	0	511	39	4	
5	0	0	0	0	502	620	0	507	39	4	
6	0	0	0	0	505	646	0	499	39	4	
7	0	0	0	0	502	650	0	495	39	4	
8	0	0	0	0	506	642	0	483	39	4	
9	0	0	0	0	509	638	0	472	39	4	
10	0	0	0	0	508	624	0	475	39	4	
11	0	0	0	0	503	607	0	472	39	4	
12	0	0	0	0	503	599	0	474	39	4	
13	0	0	0	0	499	593	0	473	39	4	
14	0	0	0	0	503	587	0	470	39	4	
15	0	0	0	0	498	583	0	471	39	4	
0	0	0	0	0	505	583	0	465	39	4	
1	0	0	0	0	505	582	0	468	39	4	
2	0	0	0	0	508	585	0	468	39	4	
3	0	0	0	0	503	592	0	466	39	4	
4	0	0	0	0	499	600	0	473	39	4	
5	0	0	0	0	508	604	0	472	39	4	
6	0	0	0	0	507	603	0	477	39	4	
7	0	0	0	0	503	595	0	475	39	4	
8	0	0	0	0	509	592	0	472	39	4	
9	0	0	0	0	503	598	0	472	39	4	
10	0	0	0	0	502	598	0	471	39	4	
11	0	0	0	0	496	587	0	478	39	4	
12	0	0	0	0	502	570	0	476	39	4	
13	0	0	0	0	505	557	0	473	39	4	
14	0	0	0	0	502	547	0	478	39	4	
15	0	0	0	0	504	541	0	475	39	4	
0	0	0	0	0	504	544	0	477	39	4	
1	0	0	0	0	500	540	0	473	39	4	
2	0	0	0	0	508	534	0	469	39	4	
3	0	0	0	0	510	543	0	475	39	4	
4	0	0	0	0	499	560	0	474	39	4	
5	0	0	0	0	506	568	0	478	39	4	
6	0	0	0	0	500	565	0	478	39	4	
7	0	0	0	0	507	563	0	476	39	4	
8	0	0	0	0	501	559	0	476	39	4	
9	0	0	0	0	502	555	0	470	39	4	
10	0	0	0	0	502	551	0	474	39	4	
11	0	0	0	0	497	539	0	475	39	4	
12	0	0	0	0	508	525	0	476	39	4	
13	0	0	0	0	499	515	0	495	39	4	
14	0	0	0	0	499	510	0	521	39	4	
15	0	0	0	0	503	503	0	526	39	4	
0	0	0	0	0	504	499	0	517	39	4	
1	0	0	0	0	503	501	0	504	39	4	
2	0	0	0	0	508	501	0	501	39	4	
3	0	0	0	0	500	500	0	493	39	4	
4	0	0	0	0	499	496	0	493	39	4	
5	0	0	0	0	501	492	0	492	39	4	
6	0	0	0	0	510	495	0	484	39	4	
7	0	0	0	0	507	499	0	484	39	4	
8	0	0	0	0	499	501	0	476	39	4	
9	0	0	0	0	502	512	0	473	39	4	
10	0	0	0	0	499	511	0	471	39	4	
11	0	0	0	0	512	510	0	471	39	4	
12	0	0	0	0	504	495	0	494	39	4	
13	0	0	0	0	499	469	0	478	39	4	
14	0	0	0	0	501	459	0	481	39	4	
15	0	0	0	0	497	465	0	480	39	4	
0	0	0	0	0	505	467	0	479	39	4	
1	0	0	0	0	508	475	0	481	39	4	
2	0	0	0	0	507	477	0	480	39	4	
3	0	0	0	0	503	478	0	485	39	4	
4	0	0	0	0	498	488	0	485	39	4	
5	0	0	0	0	501	500	0	488	39	4	
6	0	0	0	0	503	500	0	505	39	4	
7	0	0	0	0	499	502	0	530	39	4	
8	0	0	0	0	496	507	0	536	39	4	
9	0	0	0	0	499	506	0	530	39	4	
10	0	0	0	0	509	497	0	521	39	4	
11	0	0	0	0	509	494	0	516	39	4	
12	0	0	0	0	505	484	0	524	39	4	
13	0	0	0	0	504	473	0	508	39	4	
14	0	0	0	0	509	460	0	503	39	4	
15	0	0	0	0	500	449	0	499	39	4	
0	0	0	0	0	503	444	0	497	39	4	
1	0	0	0	0	505	446	0	491	39	4	
2	0	0	0	0	505	450	0	495	39	4	
3	0	0	0	0	503	460	0	508	39	4	
4	0	0	0	0	506	464	0	512	39	4	
5	0	0	0	0	503	471	0	527	39	4	
6	0	0	0	0	500	475	0	543	39	4	
7	0	0	0	0	500	475	0	558	39	4	
8	0	0	0	0	503	477	0	570	39	4	
9	0	0	0	0	497	470	0	562	39	4	
10	0	0	0	0	504	461	0	561	39	4	
11	0	0	0	0	508	462	0	569	39	4	
12	0	0	0	0	506	465	0	562	39	4	
13	0	0	0	0	503	462	0	569	39	4	
14	0	0	0	0	505	455	0	570	39	4	
15	0	0	0	0	500	451	0	569	39	4	
0	0	0	0	0	500	444	0	575	39	4	
1	0	0	0	0	504	445	0	568	39	4	
2	0	0	0	0	503	452	0	574	39	4	
3	0	0	0	0	507	448	0	576	39	4	
4	0	0	0	0	506	441	0	569	39	4	
5	0	0	0	0	504	444	0	576	39	4	
6	0	0	0	0	493	447	0	569	39	4	
7	0	0	0	0	502	448	0	549	39	4	
8	0	0	0	0	510	445	0	529	39	4	
9	0	0	0	0	505	444	0	528	39	4	
10	0	0	0	0	500	444	0	541	39	4	
11	0	0	0	0	503	448	0	540	39	4	
12	0	0	0	0	502	454	0	552	39	4	
13	0	0	0	0	502	465	0	555	39	4	
14	0	0	0	0	507	466	0	557	39	4	
15	0	0	0	0	500	461	0	567	39	4	
0	0	0	0	0	506	457	0	564	39	4	
1	0	0	0	0	505	462	0	571	39	4	
2	0	0	0	0	510	464	0	567	39	4	
3	0	0	0	0	508	457	0	563	39	4	
4	0	0	0	0	501	451	0	569	39	4	
5	0	0	0	0	501	446	0	562	39	4	
6	0	0	0	0	503	445	0	566	39	4	
7	0	0	0	0	505	451	0	567	39	4	
8	0	0	0	0	504	463	0	556	39	4	
9	0	0	0	0	504	469	0	560	39	4	
10	0	0	0	0	505	468	0	550	39	4	
11	0	0	0	0	499	464	0	534	39	4	
12	0	0	0	0	498	460	0	516	39	4	
13	0	0	0	0	507	457	0	507	39	4	
14	0	0	0	0	508	451	0	496	39	4	
15	0	0	0	0	498	444	0	494	39	4	
0	0	0	0	0	502	440	0	489	39	4	
1	0	0	0	0	505	440	0	483	39	4	
2	0	0	0	0	508	445	0	496	39	4	
3	0	0	0	0	500	451	0	520	39	4	
4	0	0	0	0	499	449	0	526	39	4	
5	0	0	0	0	505	446	0	521	39	4	
6	0	0	0	0	505	447	0	530	39	4	
7	0	0	0	0	497	457	0	537	39	4	
8	0	0	0	0	496	467	0	526	39	4	
9	0	0	0	0	502	473	0	515	38	4	
10	0	0	0	0	505	484	0	514	39	4	
11	0	0	0	0	508	496	0	506	39	4	
12	0	0	0	0	503	505	0	502	39	4	
13	0	0	0	0	499	507	0	494	39	4	
14	0	0	0	0	500	502	0	493	39	4	
15	0	0	0	0	511	489	0	488	39	4	
0	0	0	0	0	506	480	0	483	39	4	
1	0	0	0	0	502	484	0	485	39	4	
2	0	0	0	0	504	476	0	482	39	4	
3	0	0	0	0	505	455	0	488	39	4	
4	0	0	0	0	501	444	0	510	39	4	
5	0	0	0	0	513	444	0	524	39	4	
6	0	0	0	0	506	446	0	521	39	4	
7	0	0	0	0	499	454	0	521	39	4	
8	0	0	0	0	504	466	0	538	39	4	
9	0	0	0	0	504	479	0	537	39	4	
10	0	0	0	0	504	479	0	527	39	4	
11	0	0	0	0	500	483	0	516	39	4	
12	0	0	0	0	499	487	0	506	39	4	
13	0	0	0	0	499	489	0	499	39	4	
14	0	0	0	0	511	485	0	493	39	4	
15	0	0	0	0	502	485	0	490	39	4	
0	0	0	0	0	505	485	0	499	39	4	
1	0	0	0	0	505	481	0	515	39	4	
2	0	0	0	0	505	483	0	517	39	4	
3	0	0	0	0	499	484	0	513	39	4	
4	0	0	0	0	502	480	0	507	39	4	
5	0	0	0	0	500	476	0	503	39	4	
6	0	0	0	0	502	464	0	499	39	4	
7	0	0	0	0	499	454	0	496	39	4	
8	0	0	0	0	502	460	0	494	39	4	
9	0	0	0	0	502	469	0	510	39	4	
10	0	0	0	0	507	486	0	531	39	4	
11	0	0	0	0	505	494	0	530	39	4	
12	0	0	0	0	508	497	0	525	38	4	
13	0	0	0	0	509	494	0	527	39	4	
14	0	0	0	0	500	487	0	516	39	4	
15	0	0	0	0	504	497	0	520	39	4	
0	0	0	0	0	504	500	0	535	39	4	
1	0	0	0	0	499	484	0	531	39	4	
2	0	0	0	0	508	475	0	519	39	4	
3	0	0	0	0	506	468	0	508	38	4	
4	0	0	0	0	496	459	0	502	39	4	
5	0	0	0	0	507	454	0	493	39	4	
6	0	0	0	0	504	454	0	489	39	4	
7	0	0	0	0	499	451	0	482	39	4	
8	0	0	0	0	510	457	0	478	39	4	
9	0	0	0	0	501	467	0	490	39	4	
10	0	0	0	0	491	476	0	512	39	4	
11	0	0	0	0	497	472	0	518	39	4	
12	0	0	0	0	501	475	0	515	39	4	
13	0	0	0	0	513	480	0	504	39	4	
14	0	0	0	0	504	481	0	497	39	4	
15	0	0	0	0	504	475	0	494	39	4	
0	0	0	0	0	497	473	0	510	39	4	
1	0	0	0	0	508	471	0	512	39	4	
2	0	0	0	0	506	468	0	503	39	4	
3	0	0	0	0	502	462	0	497	39	4	
4	0	0	0	0	501	454	0	489	39	4	
5	0	0	0	0	506	449	0	487	39	4	
6	0	0	0	0	499	449	0	481	39	4	
7	0	0	0	0	506	456	0	475	39	4	
8	0	0	0	0	500	463	0	485	39	4	
9	0	0	0	0	504	470	0	501	39	4	
10	0	0	0	0	504	486	0	505	39	4	
11	0	0	0	0	507	502	0	500	39	4	
12	0	0	0	0	502	512	0	505	39	4	
13	0	0	0	0	501	517	0	504	39	4	
14	0	0	0	0	499	510	0	493	39	4	
15	0	0	0	0	496	502	0	490	39	4	
0	0	0	0	0	500	495	0	480	39	4	
1	0	0	0	0	508	487	0	474	39	4	
2	0	0	0	0	510	474	0	487	39	4	
3	0	0	0	0	503	465	0	508	39	4	
4	0	0	0	0	499	467	0	515	39	4	
5	0	0	0	0	502	471	0	507	39	4	
6	0	0	0	0	505	473	0	495	39	4	
7	0	0	0	0	507	479	0	489	39	4	
8	0	0	0	0	503	482	0	487	39	4	
9	0	0	0	0	504	487	0	505	39	4	
10	0	0	0	0	507	492	0	509	39	4	
11	0	0	0	0	508	501	0	503	39	4	
12	0	0	0	0	502	511	0	500	39	4	
13	0	0	0	0	502	519	0	492	39	4	
14	0	0	0	0	496	536	0	492	39	4	
15	0	0	0	0	503	528	0	483	39	4	
0	0	0	0	0	511	513	0	477	39	4	
1	0	0	0	0	501	497	0	490	39	4	
2	0	0	0	0	496	477	0	511	39	4	
3	0	0	0	0	498	455	0	516	39	4	
4	0	0	0	0	508	440	0	510	39	4	
5	0	0	0	0	504	444	0	500	39	4	
6	0	0	0	0	509	472	0	496	39	4	
7	0	0	0	0	512	505	0	492	39	4	
8	0	0	0	0	496	514	0	510	39	4	
9	0	0	0	0	495	504	0	515	39	4	
10	0	0	0	0	504	497	0	505	39	4	
11	0	0	0	0	499	506	0	508	39	4	
12	0	0	0	0	507	504	0	505	39	4	
13	0	0	0	0	501	498	0	501	39	4	
14	0	0	0	0	504	499	0	492	39	4	
15	0	0	0	0	509	505	0	485	39	4	
0	0	0	0	0	502	517	0	486	39	4	
1	0	0	0	0	502	518	0	479	39	4	
2	0	0	0	0	508	519	0	486	39	4	
3	0	0	0	0	503	509	0	503	38	4	
4	0	0	0	0	508	492	0	517	39	4	
5	0	0	0	0	499	482	0	513	39	4	
6	0	0	0	0	502	476	0	504	39	4	
7	0	0	0	0	501	481	0	501	39	4	
8	0	0	0	0	499	486	0	493	39	4	
9	0	0	0	0	505	491	0	505	39	4	
10	0	0	0	0	499	488	0	526	39	4	
11	0	0	0	0	490	488	0	524	39	4	
12	0	0	0	0	496	492	0	515	39	4	
13	0	0	0	0	504	503	0	505	39	4	
14	0	0	0	0	508	506	0	496	39	4	
15	0	0	0	0	509	502	0	501	39	4	
0	0	0	0	0	508	493	0	513	39	4	
1	0	0	0	0	499	482	0	512	39	4	
2	0	0	0	0	507	477	0	503	39	4	
3	0	0	0	0	515	470	0	495	38	4	
4	0	0	0	0	504	462	0	493	39	4	
5	0	0	0	0	504	457	0	484	39	4	
6	0	0	0	0	498	459	0	485	39	4	
7	0	0	0	0	500	455	0	481	39	4	
8	0	0	0	0	501	455	0	477	39	4	
9	0	0	0	0	503	456	0	489	39	4	
10	0	0	0	0	498	457	0	512	39	4	
11	0	0	0	0	497	462	0	519	39	4	
12	0	0	0	0	512	467	0	515	39	4	
13	0	0	0	0	502	479	0	519	39	4	
14	0	0	0	0	503	495	0	514	39	4	
15	0	0	0	0	511	499	0	508	39	4	
0	0	0	0	0	502	504	0	523	39	4	
1	0	0	0	0	502	506	0	523	39	4	
2	0	0	0	0	507	501	0	513	39	4	
3	0	0	0	0	501	502	0	505	39	4	
4	0	0	0	0	501	506	0	494	39	4	
5	0	0	0	0	498	497	0	497	39	4	
6	0	0	0	0	502	499	0	479	39	4	
7	0	0	0	0	510	511	0	471	39	4	
8	0	0	0	0	504	512	0	482	39	4	
9	0	0	0	0	496	495	0	499	39	4	
10	0	0	0	0	495	477	0	504	39	4	
11	0	0	0	0	504	471	0	497	39	4	
12	0	0	0	0	503	468	0	489	39	4	
13	0	0	0	0	502	477	0	488	39	4	
14	0	0	0	0	504	478	0	478	39	4	
15	0	0	0	0	502	473	0	478	39	4	
0	0	0	0	0	515	463	0	476	39	4	
1	0	0	0	0	505	457	0	489	39	4	
2	0	0	0	0	500	457	0	512	39	4	
3	0	0	0	0	497	463	0	512	39	4	
4	0	0	0	0	501	472	0	508	39	4	
5	0	0	0	0	499	481	0	499	39	4	
6	0	0	0	0	516	485	0	493	39	4	
7	0	0	0	0	499	480	0	500	39	4	
8	0	0	0	0	499	476	0	512	39	4	
9	0	0	0	0	503	472	0	511	39	4	
10	0	0	0	0	497	470	0	503	39	4	
11	0	0	0	0	503	470	0	512	39	4	
12	0	0	0	0	508	473	0	511	39	4	
13	0	0	0	0	500	472	0	503	39	4	
14	0	0	0	0	503	483	0	500	39	4	
15	0	0	0	0	512	499	0	495	39	4	
0	0	0	0	0	510	501	0	492	39	4	
1	0	0	0	0	506	500	0	496	39	4	
2	0	0	0	0	504	494	0	499	39	4	
3	0	0	0	0	499	491	0	524	39	4	
4	0	0	0	0	508	489	0	540	39	4	
5	0	0	0	0	502	483	0	531	39	4	
6	0	0	0	0	499	478	0	523	39	4	
7	0	0	0	0	504	468	0	512	39	4	
8	0	0	0	0	501	459	0	508	39	4	
9	0	0	0	0	499	452	0	523	39	4	
10	0	0	0	0	508	454	0	530	39	4	
11	0	0	0	0	500	462	0	526	39	4	
12	0	0	0	0	501	470	0	515	39	4	
13	0	0	0	0	509	478	0	507	39	4	
14	0	0	0	0	506	483	0	499	39	4	
15	0	0	0	0	500	484	0	492	39	4	
0	0	0	0	0	502	493	0	501	39	4	
1	0	0	0	0	506	503	0	515	39	4	
2	0	0	0	0	503	510	0	518	39	4	
3	0	0	0	0	503	511	0	529	39	4	
4	0	0	0	0	504	499	0	504	39	4	
5	0	0	0	0	506	493	0	498	39	4	
6	0	0	0	0	505	487	0	492	39	4	
7	0	0	0	0	499	478	0	492	39	4	
8	0	0	0	0	499	471	0	489	39	4	
9	0	0	0	0	503	477	0	505	39	4	
10	0	0	0	0	504	484	0	526	39	4	
11	0	0	0	0	496	487	0	527	39	4	
12	0	0	0	0	498	489	0	522	39	4	
13	0	0	0	0	515	486	0	523	39	4	
14	0	0	0	0	514	484	0	515	39	4	
15	0	0	0	0	503	497	0	520	39	4	
0	0	0	0	0	491	514	0	535	39	4	
1	0	0	0	0	502	525	0	532	39	4	
2	0	0	0	0	505	533	0	523	39	4	
3	0	0	0	0	511	535	0	512	38	4	
4	0	0	0	0	499	532	0	505	39	4	
5	0	0	0	0	498	529	0	495	39	4	
6	0	0	0	0	502	529	0	493	39	4	
7	0	0	0	0	503	514	0	488	39	4	
8	0	0	0	0	499	500	0	485	39	4	
9	0	0	0	0	502	492	0	498	39	4	
10	0	0	0	0	500	492	0	528	39	4	
11	0	0	0	0	499	492	0	530	38	4	
12	0	0	0	0	508	497	0	525	39	4	
13	0	0	0	0	510	508	0	515	39	4	
14	0	0	0	0	496	518	0	509	39	4	
15	0	0	0	0	503	521	0	507	39	4	
0	0	0	0	0	503	528	0	522	39	4	
1	0	0	0	0	505	537	0	521	39	4	
2	0	0	0	0	504	555	0	512	39	4	
3	0	0	0	0	503	572	0	505	39	4	
4	0	0	0	0	510	582	0	496	39	4	
5	0	0	0	0	496	595	0	494	39	4	
6	0	0	0	0	503	600	0	487	39	4	
7	0	0	0	0	509	599	0	484	39	4	
8	0	0	0	0	504	595	0	496	39	4	
9	0	0	0	0	496	575	0	512	39	4	
10	0	0	0	0	506	563	0	519	39	4	
11	0	0	0	0	504	564	0	515	39	4	
12	0	0	0	0	504	567	0	520	39	4	
13	0	0	0	0	504	588	0	519	39	4	
14	0	0	0	0	502	593	0	510	39	4	
15	0	0	0	0	504	569	0	503	39	4	
0	0	0	0	0	508	550	0	497	39	4	
1	0	0	0	0	507	540	0	491	39	4	
2	0	0	0	0	501	524	0	503	39	4	
3	0	0	0	0	493	509	0	524	39	4	
4	0	0	0	0	492	502	0	529	39	4	
5	0	0	0	0	497	499	0	522	39	4	
6	0	0	0	0	513	492	0	510	39	4	
7	0	0	0	0	503	485	0	504	39	4	
8	0	0	0	0	503	470	0	492	39	4	
9	0	0	0	0	504	453	0	491	39	4	
10	0	0	0	0	504	433	0	484	39	4	
11	0	0	0	0	507	408	0	479	39	4	
12	0	0	0	0	503	383	0	482	39	4	
13	0	0	0	0	501	366	0	480	39	4	
14	0	0	0	0	511	353	0	482	39	4	
15	0	0	0	0	502	349	0	480	39	4	
0	0	0	0	0	509	349	0	477	39	4	
1	0	0	0	0	500	350	0	478	39	4	
2	0	0	0	0	491	337	0	474	39	4	
3	0	0	0	0	504	326	0	479	39	4	
4	0	0	0	0	502	321	0	478	39	4	
5	0	0	0	0	502	317	0	476	39	4	
6	0	0	0	0	511	319	0	480	39	4	
7	0	0	0	0	513	315	0	477	39	4	
8	0	0	0	0	505	311	0	478	39	4	
9	0	0	0	0	501	305	0	474	39	4	
10	0	0	0	0	508	297	0	473	39	4	
11	0	0	0	0	499	294	0	477	39	4	
12	0	0	0	0	505	307	0	477	39	4	
13	0	0	0	0	497	319	0	483	39	4	
14	0	0	0	0	508	326	0	480	39	4	
15	0	0	0	0	501	331	0	478	39	4	
0	0	0	0	0	501	337	0	489	39	4	
1	0	0	0	0	501	354	0	508	39	4	
2	0	0	0	0	504	373	0	513	39	4	
3	0	0	0	0	507	388	0	509	39	4	
4	0	0	0	0	504	394	0	499	39	4	
5	0	0	0	0	497	410	0	495	39	4	
6	0	0	0	0	504	419	0	487	39	4	
7	0	0	0	0	498	421	0	489	39	4	
8	0	0	0	0	508	430	0	483	39	4	
9	0	0	0	0	508	429	0	476	39	4	
10	0	0	0	0	503	422	0	480	39	4	
11	0	0	0	0	498	412	0	484	39	4	
12	0	0	0	0	499	408	0	485	39	4	
13	0	0	0	0	505	405	0	484	39	4	
14	0	0	0	0	501	411	0	484	39	4	
15	0	0	0	0	511	427	0	487	39	4	
0	0	0	0	0	498	440	0	484	39	4	
1	0	0	0	0	505	446	0	484	39	4	
2	0	0	0	0	507	463	0	481	39	4	
3	0	0	0	0	507	472	0	480	39	4	
4	0	0	0	0	504	474	0	489	39	4	
5	0	0	0	0	503	480	0	486	39	4	
6	0	0	0	0	507	488	0	490	39	4	
7	0	0	0	0	505	492	0	487	39	4	
8	0	0	0	0	512	497	0	485	39	4	
9	0	0	0	0	498	505	0	497	39	4	
10	0	0	0	0	500	524	0	523	39	4	
11	0	0	0	0	505	538	0	548	39	4	
12	0	0	0	0	505	540	0	528	39	4	
13	0	0	0	0	502	534	0	516	39	4	
14	0	0	0	0	506	533	0	511	39	4	
15	0	0	0	0	502	536	0	499	39	4	
0	0	0	0	0	503	539	0	494	39	4	
1	0	0	0	0	505	544	0	483	39	4	
2	0	0	0	0	499	547	0	478	39	4	
3	0	0	0	0	504	555	0	481	39	4	
4	0	0	0	0	506	564	0	481	39	4	
5	0	0	0	0	501	571	0	486	39	4	
6	0	0	0	0	505	571	0	482	39	4	
7	0	0	0	0	507	572	0	480	39	4	
8	0	0	0	0	499	577	0	478	39	4	
9	0	0	0	0	506	583	0	471	39	4	
10	0	0	0	0	504	592	0	473	39	4	
11	0	0	0	0	501	594	0	475	39	4	
12	0	0	0	0	501	588	0	476	39	4	
13	0	0	0	0	500	583	0	481	39	4	
14	0	0	0	0	502	568	0	479	39	4	
15	0	0	0	0	505	552	0	486	39	4	
0	0	0	0	0	503	536	0	504	39	4	
1	0	0	0	0	508	525	0	515	39	4	
2	0	0	0	0	509	536	0	527	39	4	
3	0	0	0	0	497	556	0	542	39	4	
4	0	0	0	0	501	569	0	543	39	4	
5	0	0	0	0	501	575	0	553	39	4	
6	0	0	0	0	509	577	0	558	39	4	
7	0	0	0	0	499	577	0	556	39	4	
8	0	0	0	0	502	571	0	560	39	4	
9	0	0	0	0	509	573	0	549	39	4	
10	0	0	0	0	498	586	0	552	39	4	
11	0	0	0	0	508	593	0	551	39	4	
12	0	0	0	0	504	584	0	567	39	4	
13	0	0	0	0	503	572	0	556	39	4	
14	0	0	0	0	499	568	0	546	39	4	
15	0	0	0	0	500	563	0	553	39	4	
0	0	0	0	0	508	558	0	550	39	4	
1	0	0	0	0	504	559	0	546	39	4	
2	0	0	0	0	500	554	0	554	39	4	
3	0	0	0	0	500	552	0	550	39	4	
4	0	0	0	0	504	557	0	555	39	4	
5	0	0	0	0	504	568	0	550	39	4	
6	0	0	0	0	506	574	0	547	39	4	
7	0	0	0	0	502	569	0	551	39	4	
8	0	0	0	0	504	562	0	544	39	4	
9	0	0	0	0	505	559	0	548	39	4	
10	0	0	0	0	509	566	0	545	39	4	
11	0	0	0	0	503	576	0	531	39	4	
12	0	0	0	0	497	579	0	515	39	4	
13	0	0	0	0	504	567	0	503	39	4	
14	0	0	0	0	501	554	0	494	39	4	
15	0	0	0	0	511	543	0	487	39	4	
0	0	0	0	0	505	535	0	487	39	4	
1	0	0	0	0	503	531	0	478	39	4	
2	0	0	0	0	505	537	0	483	39	4	
3	0	0	0	0	499	543	0	504	39	4	
4	0	0	0	0	505	548	0	516	39	4	
5	0	0	0	0	505	563	0	512	39	4	
6	0	0	0	0	501	581	0	508	39	4	
7	0	0	0	0	504	585	0	523	39	4	
8	0	0	0	0	505	578	0	525	39	4	
9	0	0	0	0	508	578	0	514	39	4	
10	0	0	0	0	504	580	0	515	39	4	
11	0	0	0	0	502	582	0	510	39	4	
12	0	0	0	0	499	587	0	506	39	4	
13	0	0	0	0	504	587	0	498	39	4	
14	0	0	0	0	504	574	0	490	39	4	
15	0	0	0	0	507	573	0	491	39	4	
0	0	0	0	0	499	568	0	486	39	4	
1	0	0	0	0	508	559	0	491	39	4	
2	0	0	0	0	509	554	0	509	39	4	
3	0	0	0	0	509	558	0	519	39	4	
4	0	0	0	0	506	563	0	516	39	4	
5	0	0	0	0	497	570	0	507	39	4	
6	0	0	0	0	496	585	0	499	39	4	
7	0	0	0	0	495	598	0	494	39	4	
8	0	0	0	0	499	603	0	504	39	4	
9	0	0	0	0	503	600	0	519	39	4	
10	0	0	0	0	504	593	0	524	39	4	
11	0	0	0	0	503	591	0	544	39	4	
12	0	0	0	0	505	601	0	546	39	4	
13	0	0	0	0	505	616	0	536	39	4	
14	0	0	0	0	507	617	0	533	39	4	
15	0	0	0	0	504	597	0	540	39	4	
0	0	0	0	0	503	590	0	530	39	4	
1	0	0	0	0	502	604	0	517	39	4	
2	0	0	0	0	511	609	0	505	39	4	
3	0	0	0	0	504	597	0	499	39	4	
4	0	0	0	0	504	583	0	492	39	4	
5	0	0	0	0	502	579	0	494	39	4	
6	0	0	0	0	503	588	0	487	39	4	
7	0	0	0	0	510	594	0	484	39	4	
8	0	0	0	0	502	597	0	497	39	4	
9	0	0	0	0	499	597	0	513	39	4	
10	0	0	0	0	502	604	0	517	39	4	
11	0	0	0	0	505	621	0	510	39	4	
12	0	0	0	0	510	630	0	499	39	4	
13	0	0	0	0	495	634	0	501	39	4	
14	0	0	0	0	502	634	0	502	39	4	
15	0	0	0	0	508	622	0	505	39	4	
0	0	0	0	0	499	605	0	523	39	4	
1	0	0	0	0	499	590	0	534	39	4	
2	0	0	0	0	505	590	0	531	39	4	
3	0	0	0	0	504	601	0	519	39	4	
4	0	0	0	0	501	615	0	511	39	4	
5	0	0	0	0	505	614	0	503	39	4	
6	0	0	0	0	505	615	0	495	39	4	
7	0	0	0	0	502	620	0	495	39	4	
8	0	0	0	0	503	631	0	495	39	4	
9	0	0	0	0	508	635	0	514	39	4	
10	0	0	0	0	500	626	0	519	39	4	
11	0	0	0	0	507	617	0	513	38	4	
12	0	0	0	0	503	605	0	509	39	4	
13	0	0	0	0	500	598	0	501	39	4	
14	0	0	0	0	507	607	0	498	39	4	
15	0	0	0	0	510	611	0	492	39	4	
0	0	0	0	0	506	600	0	489	39	4	
1	0	0	0	0	509	593	0	501	39	4	
2	0	0	0	0	496	567	0	520	39	4	
3	0	0	0	0	498	547	0	527	39	4	
4	0	0	0	0	508	543	0	521	39	4	
5	0	0	0	0	499	544	0	512	39	4	
6	0	0	0	0	501	551	0	508	39	4	
7	0	0	0	0	508	561	0	521	39	4	
8	0	0	0	0	500	574	0	524	39	4	
9	0	0	0	0	511	582	0	526	39	4	
10	0	0	0	0	502	578	0	518	39	4	
11	0	0	0	0	498	575	0	520	39	4	
12	0	0	0	0	502	576	0	518	39	4	
13	0	0	0	0	494	578	0	512	39	4	
14	0	0	0	0	503	588	0	506	39	4	
15	0	0	0	0	509	587	0	497	39	4	
0	0	0	0	0	507	579	0	498	39	4	
1	0	0	0	0	507	571	0	493	39	4	
2	0	0	0	0	504	563	0	498	39	4	
3	0	0	0	0	505	556	0	516	39	4	
4	0	0	0	0	507	552	0	544	39	4	
5	0	0	0	0	499	550	0	525	39	4	
6	0	0	0	0	502	546	0	515	39	4	
7	0	0	0	0	508	540	0	508	39	4	
8	0	0	0	0	500	539	0	502	39	4	
9	0	0	0	0	511	541	0	515	39	4	
10	0	0	0	0	501	543	0	534	39	4	
11	0	0	0	0	497	539	0	530	39	4	
12	0	0	0	0	497	536	0	521	39	4	
13	0	0	0	0	504	530	0	509	39	4	
14	0	0	0	0	512	525	0	498	39	4	
15	0	0	0	0	507	527	0	505	39	4	
0	0	0	0	0	494	527	0	516	39	4	
1	0	0	0	0	500	513	0	513	39	4	
2	0	0	0	0	508	493	0	505	39	4	
3	0	0	0	0	508	479	0	497	39	4	
4	0	0	0	0	499	475	0	496	39	4	
5	0	0	0	0	504	479	0	489	39	4	
6	0	0	0	0	499	486	0	490	39	4	
7	0	0	0	0	510	484	0	487	39	4	
8	0	0	0	0	510	473	0	485	39	4	
9	0	0	0	0	507	483	0	499	39	4	
10	0	0	0	0	495	502	0	522	39	4	
11	0	0	0	0	495	511	0	537	39	4	
12	0	0	0	0	512	521	0	524	39	4	
13	0	0	0	0	503	524	0	525	39	4	
14	0	0	0	0	504	524	0	518	39	4	
15	0	0	0	0	504	515	0	514	39	4	
0	0	0	0	0	502	499	0	530	39	4	
1	0	0	0	0	507	488	0	529	39	4	
2	0	0	0	0	506	475	0	518	39	4	
3	0	0	0	0	505	462	0	509	39	4	
4	0	0	0	0	501	455	0	499	39	4	
5	0	0	0	0	500	456	0	493	39	4	
6	0	0	0	0	505	461	0	485	39	4	
7	0	0	0	0	506	465	0	481	39	4	
8	0	0	0	0	498	471	0	492	39	4	
9	0	0	0	0	496	479	0	506	39	4	
10	0	0	0	0	498	488	0	510	39	4	
11	0	0	0	0	503	499	0	504	39	4	
12	0	0	0	0	500	501	0	496	39	4	
13	0	0	0	0	508	499	0	493	39	4	
14	0	0	0	0	506	496	0	483	39	4	
15	0	0	0	0	504	499	0	485	39	4	
0	0	0	0	0	505	487	0	481	39	4	
1	0	0	0	0	496	477	0	496	39	4	
2	0	0	0	0	501	467	0	519	39	4	
3	0	0	0	0	500	455	0	519	39	4	
4	0	0	0	0	506	448	0	513	39	4	
5	0	0	0	0	508	453	0	505	39	4	
6	0	0	0	0	502	452	0	494	39	4	
7	0	0	0	0	505	454	0	499	39	4	
8	0	0	0	0	496	452	0	512	39	4	
9	0	0	0	0	506	444	0	509	39	4	
10	0	0	0	0	505	446	0	503	39	4	
11	0	0	0	0	499	456	0	510	38	4	
12	0	0	0	0	496	468	0	508	39	4	
13	0	0	0	0	499	477	0	500	39	4	
14	0	0	0	0	503	480	0	497	39	4	
15	0	0	0	0	507	478	0	490	39	4	
0	0	0	0	0	504	467	0	487	39	4	
1	0	0	0	0	503	460	0	489	39	4	
2	0	0	0	0	518	456	0	490	39	4	
3	0	0	0	0	502	447	0	514	39	4	
4	0	0	0	0	501	432	0	527	39	4	
5	0	0	0	0	507	429	0	519	39	4	
6	0	0	0	0	504	435	0	511	39	4	
7	0	0	0	0	500	446	0	498	39	4	
8	0	0	0	0	508	461	0	498	39	4	
9	0	0	0	0	502	474	0	511	39	4	
10	0	0	0	0	507	475	0	520	39	4	
11	0	0	0	0	499	474	0	517	39	4	
12	0	0	0	0	505	471	0	509	39	4	
13	0	0	0	0	504	471	0	504	39	4	
14	0	0	0	0	504	466	0	496	39	4	
15	0	0	0	0	507	465	0	492	39	4	
0	0	0	0	0	504	479	0	498	39	4	
1	0	0	0	0	500	497	0	512	39	4	
2	0	0	0	0	505	500	0	515	39	4	
3	0	0	0	0	503	484	0	510	39	4	
4	0	0	0	0	512	460	0	502	39	4	
5	0	0	0	0	504	447	0	498	39	4	
6	0	0	0	0	504	443	0	493	39	4	
7	0	0	0	0	499	440	0	493	39	4	
8	0	0	0	0	499	447	0	489	39	4	
9	0	0	0	0	510	458	0	505	39	4	
10	0	0	0	0	504	462	0	528	39	4	
11	0	0	0	0	503	460	0	529	39	4	
12	0	0	0	0	505	463	0	526	39	4	
13	0	0	0	0	505	478	0	526	39	4	
14	0	0	0	0	505	490	0	519	39	4	
15	0	0	0	0	505	489	0	526	39	4	
0	0	0	0	0	498	485	0	542	39	4	
1	0	0	0	0	499	487	0	540	39	4	
2	0	0	0	0	500	486	0	529	39	4	
3	0	0	0	0	508	481	0	517	39	4	
4	0	0	0	0	514	480	0	512	39	4	
5	0	0	0	0	503	474	0	504	39	4	
6	0	0	0	0	492	463	0	499	39	4	
7	0	0	0	0	501	460	0	498	39	4	
8	0	0	0	0	513	458	0	494	39	4	
9	0	0	0	0	498	451	0	507	39	4	
10	0	0	0	0	492	449	0	530	39	4	
11	0	0	0	0	499	452	0	538	39	4	
12	0	0	0	0	504	460	0	540	39	4	
13	0	0	0	0	504	475	0	520	39	4	
14	0	0	0	0	499	489	0	511	39	4	
15	0	0	0	0	508	495	0	509	39	4	
0	0	0	0	0	500	498	0	524	39	4	
1	0	0	0	0	511	494	0	525	39	4	
2	0	0	0	0	505	486	0	518	39	4	
3	0	0	0	0	505	481	0	511	39	4	
4	0	0	0	0	507	479	0	504	39	4	
5	0	0	0	0	501	470	0	497	39	4	
6	0	0	0	0	505	467	0	493	39	4	
7	0	0	0	0	510	458	0	489	39	4	
8	0	0	0	0	508	455	0	501	39	4	
9	0	0	0	0	502	460	0	516	39	4	
10	0	0	0	0	503	471	0	519	39	4	
11	0	0	0	0	497	484	0	515	39	4	
12	0	0	0	0	499	483	0	520	39	4	
13	0	0	0	0	501	489	0	518	39	4	
14	0	0	0	0	501	497	0	508	39	4	
15	0	0	0	0	505	501	0	503	39	4	
0	0	0	0	0	502	503	0	494	39	4	
1	0	0	0	0	505	500	0	487	39	4	
2	0	0	0	0	505	492	0	485	39	4	
3	0	0	0	0	502	485	0	479	39	4	
4	0	0	0	0	502	487	0	481	39	4	
5	0	0	0	0	501	486	0	478	39	4	
6	0	0	0	0	507	482	0	478	39	4	
7	0	0	0	0	506	484	0	481	39	4	
8	0	0	0	0	499	489	0	479	39	4	
9	0	0	0	0	499	495	0	478	39	4	
10	0	0	0	0	499	503	0	475	39	4	
11	0	0	0	0	507	508	0	475	39	4	
12	0	0	0	0	505	508	0	481	39	4	
13	0	0	0	0	504	496	0	481	39	4	
14	0	0	0	0	501	480	0	487	39	4	
15	0	0	0	0	507	470	0	486	39	4	
0	0	0	0	0	508	470	0	483	39	4	
1	0	0	0	0	512	478	0	484	39	4	
2	0	0	0	0	493	483	0	482	39	4	
3	0	0	0	0	501	483	0	488	39	4	
4	0	0	0	0	501	478	0	486	39	4	
5	0	0	0	0	509	477	0	486	39	4	
6	0	0	0	0	506	471	0	491	39	4	
7	0	0	0	0	511	461	0	494	39	4	
8	0	0	0	0	508	462	0	519	39	4	
9	0	0	0	0	500	461	0	530	39	4	
10	0	0	0	0	507	458	0	526	39	4	
11	0	0	0	0	499	459	0	521	39	4	
12	0	0	0	0	504	458	0	519	39	4	
13	0	0	0	0	501	463	0	539	39	4	
14	0	0	0	0	502	467	0	543	39	4	
15	0	0	0	0	499	470	0	555	39	4	
0	0	0	0	0	502	480	0	565	39	4	
1	0	0	0	0	506	485	0	564	39	4	
2	0	0	0	0	509	490	0	575	39	4	
3	0	0	0	0	509	496	0	571	39	4	
4	0	0	0	0	499	498	0	575	39	4	
5	0	0	0	0	504	495	0	577	39	4	
6	0	0	0	0	508	488	0	571	39	4	
7	0	0	0	0	507	479	0	579	39	4	
8	0	0	0	0	507	468	0	574	39	4	
9	0	0	0	0	513	464	0	555	39	4	
10	0	0	0	0	503	467	0	536	39	4	
11	0	0	0	0	501	469	0	522	39	4	
12	0	0	0	0	498	481	0	514	39	4	
13	0	0	0	0	499	488	0	507	39	4	
14	0	0	0	0	502	495	0	501	39	4	
15	0	0	0	0	503	500	0	503	39	4	
0	0	0	0	0	504	504	0	505	39	4	
1	0	0	0	0	500	506	0	526	39	4	
2	0	0	0	0	507	497	0	530	39	4	
3	0	0	0	0	505	496	0	532	38	4	
4	0	0	0	0	505	509	0	519	39	4	
5	0	0	0	0	500	517	0	510	39	4	
6	0	0	0	0	500	527	0	506	39	4	
7	0	0	0	0	493	529	0	500	39	4	
8	0	0	0	0	507	519	0	493	39	4	
9	0	0	0	0	504	507	0	490	39	4	
10	0	0	0	0	499	495	0	484	39	4	
11	0	0	0	0	502	501	0	488	39	4	
12	0	0	0	0	505	505	0	484	39	4	
13	0	0	0	0	510	496	0	484	39	4	
14	0	0	0	0	500	491	0	490	39	4	
15	0	0	0	0	508	490	0	487	39	4	
0	0	0	0	0	503	495	0	487	39	4	
1	0	0	0	0	498	505	0	482	39	4	
2	0	0	0	0	504	519	0	492	39	4	
3	0	0	0	0	506	535	0	490	39	4	
4	0	0	0	0	505	535	0	486	39	4	
5	0	0	0	0	501	528	0	492	39	4	
6	0	0	0	0	501	518	0	490	39	4	
7	0	0	0	0	501	506	0	487	39	4	
8	0	0	0	0	507	495	0	483	39	4	
9	0	0	0	0	507	485	0	477	39	4	
10	0	0	0	0	508	476	0	481	39	4	
11	0	0	0	0	508	478	0	480	39	4	
12	0	0	0	0	503	487	0	477	39	4	
13	0	0	0	0	501	487	0	483	39	4	
14	0	0	0	0	505	484	0	481	39	4	
15	0	0	0	0	493	482	0	486	39	4	
0	0	0	0	0	501	490	0	481	39	4	
1	0	0	0	0	512	501	0	480	39	4	
2	0	0	0	0	508	510	0	480	39	4	
3	0	0	0	0	510	501	0	479	39	4	
4	0	0	0	0	501	500	0	484	39	4	
5	0	0	0	0	497	513	0	483	39	4	
6	0	0	0	0	510	527	0	484	39	4	
7	0	0	0	0	500	526	0	486	39	4	
8	0	0	0	0	502	523	0	480	39	4	
9	0	0	0	0	506	520	0	483	39	4	
10	0	0	0	0	506	505	0	503	39	4	
11	0	0	0	0	505	486	0	520	39	4	
12	0	0	0	0	502	473	0	522	39	4	
13	0	0	0	0	498	470	0	513	39	4	
14	0	0	0	0	502	472	0	508	39	4	
15	0	0	0	0	497	475	0	496	39	4	
0	0	0	0	0	511	478	0	487	39	4	
1	0	0	0	0	504	483	0	483	39	4	
2	0	0	0	0	496	495	0	479	39	4	
3	0	0	0	0	499	503	0	482	39	4	
4	0	0	0	0	504	499	0	480	39	4	
5	0	0	0	0	511	497	0	480	39	4	
6	0	0	0	0	505	496	0	483	39	4	
7	0	0	0	0	503	488	0	480	39	4	
8	0	0	0	0	499	480	0	479	39	4	
9	0	0	0	0	504	476	0	475	39	4	
10	0	0	0	0	505	470	0	473	39	4	
11	0	0	0	0	503	468	0	477	39	4	
12	0	0	0	0	503	470	0	478	39	4	
13	0	0	0	0	499	475	0	483	39	4	
14	0	0	0	0	499	480	0	481	39	4	
15	0	0	0	0	506	479	0	479	39	4	
0	0	0	0	0	501	472	0	477	39	4	
1	0	0	0	0	502	469	0	469	39	4	
2	0	0	0	0	504	478	0	471	39	4	
3	0	0	0	0	510	487	0	471	39	4	
4	0	0	0	0	504	488	0	471	39	4	
5	0	0	0	0	505	499	0	477	39	4	
6	0	0	0	0	504	510	0	477	39	4	
7	0	0	0	0	499	508	0	483	39	4	
8	0	0	0	0	504	498	0	477	39	4	
9	0	0	0	0	502	491	0	493	39	4	
10	0	0	0	0	503	477	0	517	39	4	
11	0	0	0	0	512	463	0	528	38	4	
12	0	0	0	0	501	454	0	551	39	4	
13	0	0	0	0	501	450	0	555	39	4	
14	0	0	0	0	506	449	0	563	39	4	
15	0	0	0	0	508	454	0	572	39	4	
0	0	0	0	0	506	461	0	568	39	4	
1	0	0	0	0	499	467	0	574	39	4	
2	0	0	0	0	499	476	0	566	39	4	
3	0	0	0	0	504	484	0	566	39	4	
4	0	0	0	0	503	494	0	572	39	4	
5	0	0	0	0	500	494	0	567	39	4	
6	0	0	0	0	500	486	0	576	39	4	
7	0	0	0	0	505	487	0	567	39	4	
8	0	0	0	0	513	489	0	566	39	4	
9	0	0	0	0	505	495	0	568	39	4	
10	0	0	0	0	505	500	0	562	39	4	
11	0	0	0	0	507	503	0	570	39	4	
12	0	0	0	0	503	506	0	566	39	4	
13	0	0	0	0	505	496	0	577	39	4	
14	0	0	0	0	508	494	0	567	39	4	
15	0	0	0	0	508	493	0	557	39	4	
0	0	0	0	0	493	492	0	564	39	4	
1	0	0	0	0	500	486	0	558	39	4	
2	0	0	0	0	509	482	0	558	39	4	
3	0	0	0	0	500	491	0	563	39	4	
4	0	0	0	0	501	499	0	548	39	4	
5	0	0	0	0	499	504	0	531	39	4	
6	0	0	0	0	501	511	0	513	39	4	
7	0	0	0	0	512	514	0	500	39	4	
8	0	0	0	0	503	512	0	504	39	4	
9	0	0	0	0	500	508	0	515	39	4	
10	0	0	0	0	499	502	0	515	39	4	
11	0	0	0	0	507	496	0	510	39	4	
12	0	0	0	0	502	483	0	515	39	4	
13	0	0	0	0	507	478	0	512	39	4	
14	0	0	0	0	499	477	0	504	39	4	
15	0	0	0	0	501	481	0	499	39	4	
0	0	0	0	0	506	481	0	492	39	4	
1	0	0	0	0	503	483	0	487	39	4	
2	0	0	0	0	510	492	0	499	39	4	
3	0	0	0	0	502	488	0	520	39	4	
4	0	0	0	0	504	487	0	527	39	4	
5	0	0	0	0	503	496	0	523	39	4	
6	0	0	0	0	498	504	0	513	39	4	
7	0	0	0	0	504	503	0	509	39	4	
8	0	0	0	0	507	502	0	507	39	4	
9	0	0	0	0	505	507	0	524	39	4	
10	0	0	0	0	499	512	0	527	39	4	
11	0	0	0	0	506	505	0	520	38	4	
12	0	0	0	0	507	500	0	514	39	4	
13	0	0	0	0	499	492	0	506	39	4	
14	0	0	0	0	499	491	0	502	39	4	
15	0	0	0	0	508	491	0	498	39	4	
0	0	0	0	0	501	487	0	494	39	4	
1	0	0	0	0	510	479	0	507	39	4	
2	0	0	0	0	503	486	0	527	39	4	
3	0	0	0	0	499	493	0	531	39	4	
4	0	0	0	0	503	499	0	527	39	4	
5	0	0	0	0	496	510	0	515	39	4	
6	0	0	0	0	501	525	0	510	39	4	
7	0	0	0	0	505	531	0	509	39	4	
8	0	0	0	0	508	532	0	524	39	4	
9	0	0	0	0	510	536	0	528	39	4	
10	0	0	0	0	503	540	0	520	39	4	
11	0	0	0	0	504	544	0	521	39	4	
12	0	0	0	0	510	550	0	517	39	4	
13	0	0	0	0	502	535	0	512	39	4	
14	0	0	0	0	507	514	0	507	39	4	
15	0	0	0	0	505	505	0	497	39	4	
0	0	0	0	0	503	512	0	497	39	4	
1	0	0	0	0	497	542	0	491	39	4	
2	0	0	0	0	496	586	0	495	39	4	
3	0	0	0	0	499	610	0	512	39	4	
4	0	0	0	0	512	610	0	524	39	4	
5	0	0	0	0	506	602	0	521	39	4	
6	0	0	0	0	501	591	0	514	39	4	
7	0	0	0	0	501	590	0	508	39	4	
8	0	0	0	0	498	591	0	503	39	4	
9	0	0	0	0	514	595	0	515	39	4	
10	0	0	0	0	503	603	0	536	39	4	
11	0	0	0	0	510	605	0	537	39	4	
12	0	0	0	0	504	610	0	529	39	4	
13	0	0	0	0	498	611	0	521	39	4	
14	0	0	0	0	509	599	0	511	39	4	
15	0	0	0	0	510	583	0	517	39	4	
0	0	0	0	0	504	563	0	528	39	4	
1	0	0	0	0	504	542	0	525	39	4	
2	0	0	0	0	508	519	0	517	39	4	
3	0	0	0	0	504	497	0	509	38	4	
4	0	0	0	0	499	487	0	505	39	4	
5	0	0	0	0	502	476	0	501	39	4	
6	0	0	0	0	499	477	0	500	39	4	
7	0	0	0	0	502	479	0	497	39	4	
8	0	0	0	0	503	474	0	494	39	4	
9	0	0	0	0	502	467	0	507	39	4	
10	0	0	0	0	501	449	0	530	39	4	
11	0	0	0	0	501	433	0	539	39	4	
12	0	0	0	0	504	426	0	535	39	4	
13	0	0	0	0	507	415	0	538	39	4	
14	0	0	0	0	499	398	0	533	39	4	
15	0	0	0	0	510	378	0	531	39	4	
0	0	0	0	0	502	361	0	548	39	4	
1	0	0	0	0	508	350	0	549	39	4	
2	0	0	0	0	501	344	0	538	39	4	
3	0	0	0	0	500	333	0	529	39	4	
4	0	0	0	0	504	312	0	519	39	4	
5	0	0	0	0	508	292	0	512	39	4	
6	0	0	0	0	503	288	0	506	39	4	
7	0	0	0	0	503	295	0	501	39	4	
8	0	0	0	0	506	305	0	512	39	4	
9	0	0	0	0	498	310	0	528	39	4	
10	0	0	0	0	500	313	0	531	39	4	
11	0	0	0	0	510	319	0	525	39	4	
12	0	0	0	0	510	330	0	517	39	4	
13	0	0	0	0	506	336	0	513	39	4	
14	0	0	0	0	499	335	0	519	39	4	
15	0	0	0	0	502	330	0	505	39	4	
0	0	0	0	0	505	335	0	500	39	4	
1	0	0	0	0	493	345	0	515	39	4	
2	0	0	0	0	501	355	0	535	39	4	
3	0	0	0	0	509	359	0	536	39	4	
4	0	0	0	0	506	364	0	528	39	4	
5	0	0	0	0	512	372	0	519	39	4	
6	0	0	0	0	513	383	0	516	39	4	
7	0	0	0	0	497	393	0	515	39	4	
8	0	0	0	0	498	403	0	527	39	4	
9	0	0	0	0	496	412	0	523	39	4	
10	0	0	0	0	496	432	0	516	39	4	
11	0	0	0	0	499	451	0	521	39	4	
12	0	0	0	0	505	463	0	519	39	4	
13	0	0	0	0	503	462	0	506	39	4	
14	0	0	0	0	503	452	0	502	39	4	
15	0	0	0	0	507	442	0	493	39	4	
0	0	0	0	0	513	438	0	490	39	4	
1	0	0	0	0	505	439	0	494	39	4	
2	0	0	0	0	504	450	0	497	39	4	
3	0	0	0	0	507	462	0	521	39	4	
4	0	0	0	0	505	477	0	534	39	4	
5	0	0	0	0	508	487	0	528	39	4	
6	0	0	0	0	505	497	0	519	39	4	
7	0	0	0	0	502	501	0	510	39	4	
8	0	0	0	0	502	515	0	505	39	4	
9	0	0	0	0	504	532	0	518	39	4	
10	0	0	0	0	509	538	0	527	39	4	
11	0	0	0	0	503	550	0	522	39	4	
12	0	0	0	0	506	561	0	514	39	4	
13	0	0	0	0	501	565	0	505	39	4	
14	0	0	0	0	506	569	0	498	39	4	
15	0	0	0	0	505	569	0	493	39	4	
0	0	0	0	0	504	558	0	499	39	4	
1	0	0	0	0	497	548	0	513	39	4	
2	0	0	0	0	504	548	0	531	39	4	
3	0	0	0	0	507	550	0	512	39	4	
4	0	0	0	0	511	558	0	502	39	4	
5	0	0	0	0	504	563	0	500	39	4	
6	0	0	0	0	495	554	0	493	39	4	
7	0	0	0	0	497	556	0	494	39	4	
8	0	0	0	0	501	568	0	489	39	4	
9	0	0	0	0	501	593	0	503	39	4	
10	0	0	0	0	499	606	0	526	39	4	
11	0	0	0	0	506	599	0	528	39	4	
12	0	0	0	0	502	596	0	524	39	4	
13	0	0	0	0	510	599	0	526	39	4	
14	0	0	0	0	509	600	0	517	39	4	
15	0	0	0	0	502	591	0	522	39	4	
0	0	0	0	0	499	580	0	537	39	4	
1	0	0	0	0	504	567	0	535	39	4	
2	0	0	0	0	504	563	0	526	39	4	
3	0	0	0	0	506	559	0	512	38	4	
4	0	0	0	0	503	558	0	505	39	4	
5	0	0	0	0	495	560	0	496	39	4	
6	0	0	0	0	500	557	0	494	39	4	
7	0	0	0	0	499	556	0	500	39	4	
8	0	0	0	0	513	561	0	486	39	4	
9	0	0	0	0	502	574	0	499	39	4	
10	0	0	0	0	499	575	0	521	39	4	
11	0	0	0	0	496	578	0	527	39	4	
12	0	0	0	0	506	583	0	520	39	4	
13	0	0	0	0	508	580	0	508	39	4	
14	0	0	0	0	500	579	0	504	39	4	
15	0	0	0	0	504	584	0	503	39	4	
0	0	0	0	0	504	592	0	519	39	4	
1	0	0	0	0	506	600	0	519	39	4	
2	0	0	0	0	511	595	0	512	39	4	
3	0	0	0	0	506	584	0	506	39	4	
4	0	0	0	0	505	572	0	499	39	4	
5	0	0	0	0	496	560	0	497	39	4	
6	0	0	0	0	508	555	0	492	39	4	
7	0	0	0	0	508	556	0	489	39	4	
8	0	0	0	0	496	561	0	501	39	4	
9	0	0	0	0	496	562	0	516	39	4	
10	0	0	0	0	498	560	0	520	39	4	
11	0	0	0	0	503	564	0	516	39	4	
12	0	0	0	0	510	571	0	523	39	4	
13	0	0	0	0	503	575	0	517	39	4	
14	0	0	0	0	505	574	0	505	39	4	
15	0	0	0	0	497	578	0	499	39	4	
0	0	0	0	0	505	586	0	491	39	4	
1	0	0	0	0	504	587	0	486	39	4	
2	0	0	0	0	504	583	0	496	39	4	
3	0	0	0	0	500	576	0	518	39	4	
4	0	0	0	0	507	575	0	525	39	4	
5	0	0	0	0	507	573	0	521	39	4	
6	0	0	0	0	508	568	0	513	39	4	
7	0	0	0	0	508	572	0	506	39	4	
8	0	0	0	0	505	573	0	499	39	4	
9	0	0	0	0	505	580	0	498	39	4	
10	0	0	0	0	500	578	0	515	39	4	
11	0	0	0	0	507	585	0	526	39	4	
12	0	0	0	0	499	597	0	523	39	4	
13	0	0	0	0	503	594	0	517	39	4	
14	0	0	0	0	495	593	0	508	39	4	
15	0	0	0	0	502	587	0	499	39	4	
0	0	0	0	0	503	585	0	511	39	4	
1	0	0	0	0	501	586	0	524	39	4	
2	0	0	0	0	503	588	0	522	39	4	
3	0	0	0	0	504	580	0	515	39	4	
4	0	0	0	0	504	567	0	518	39	4	
5	0	0	0	0	501	556	0	499	39	4	
6	0	0	0	0	504	553	0	494	39	4	
7	0	0	0	0	504	557	0	489	39	4	
8	0	0	0	0	504	567	0	494	39	4	
9	0	0	0	0	503	574	0	510	39	4	
10	0	0	0	0	504	582	0	523	39	4	
11	0	0	0	0	508	589	0	520	39	4	
12	0	0	0	0	508	592	0	519	39	4	
13	0	0	0	0	498	603	0	521	39	4	
14	0	0	0	0	500	617	0	514	39	4	
15	0	0	0	0	504	627	0	521	39	4	
0	0	0	0	0	504	634	0	531	39	4	
1	0	0	0	0	498	628	0	528	39	4	
2	0	0	0	0	499	617	0	518	39	4	
3	0	0	0	0	505	607	0	524	39	4	
4	0	0	0	0	510	600	0	499	39	4	
5	0	0	0	0	504	592	0	494	39	4	
6	0	0	0	0	497	587	0	489	39	4	
7	0	0	0	0	500	579	0	489	39	4	
8	0	0	0	0	503	577	0	482	39	4	
9	0	0	0	0	505	592	0	478	39	4	
10	0	0	0	0	507	612	0	499	39	4	
11	0	0	0	0	501	617	0	515	39	4	
12	0	0	0	0	503	617	0	523	39	4	
13	0	0	0	0	508	622	0	540	39	4	
14	0	0	0	0	509	633	0	542	39	4	
15	0	0	0	0	496	636	0	528	39	4	
0	0	0	0	0	497	632	0	512	39	4	
1	0	0	0	0	502	627	0	498	39	4	
2	0	0	0	0	508	627	0	488	39	4	
3	0	0	0	0	500	625	0	480	39	4	
4	0	0	0	0	503	620	0	482	39	4	
5	0	0	0	0	508	617	0	476	39	4	
6	0	0	0	0	503	625	0	477	39	4	
7	0	0	0	0	507	632	0	477	39	4	
8	0	0	0	0	508	634	0	475	39	4	
9	0	0	0	0	503	629	0	499	39	4	
10	0	0	0	0	495	622	0	513	39	4	
11	0	0	0	0	498	608	0	518	39	4	
12	0	0	0	0	504	600	0	515	39	4	
13	0	0	0	0	509	600	0	520	39	4	
14	0	0	0	0	500	614	0	512	39	4	
15	0	0	0	0	503	630	0	508	39	4	
0	0	0	0	0	497	638	0	523	39	4	
1	0	0	0	0	497	644	0	524	39	4	
2	0	0	0	0	508	643	0	516	39	4	
3	0	0	0	0	501	640	0	507	39	4	
4	0	0	0	0	500	631	0	497	39	4	
5	0	0	0	0	504	611	0	493	39	4	
6	0	0	0	0	508	588	0	487	39	4	
7	0	0	0	0	511	571	0	483	39	4	
8	0	0	0	0	504	561	0	495	39	4	
9	0	0	0	0	503	563	0	513	39	4	
10	0	0	0	0	498	568	0	516	39	4	
11	0	0	0	0	509	569	0	510	39	4	
12	0	0	0	0	504	574	0	502	39	4	
13	0	0	0	0	505	578	0	500	39	4	
14	0	0	0	0	499	576	0	494	39	4	
15	0	0	0	0	499	574	0	494	39	4	
0	0	0	0	0	508	569	0	489	39	4	
1	0	0	0	0	509	568	0	520	39	4	
2	0	0	0	0	503	568	0	529	39	4	
3	0	0	0	0	505	560	0	530	39	4	
4	0	0	0	0	498	558	0	521	39	4	
5	0	0	0	0	512	559	0	512	39	4	
6	0	0	0	0	507	554	0	501	39	4	
7	0	0	0	0	504	544	0	507	39	4	
8	0	0	0	0	499	540	0	518	39	4	
9	0	0	0	0	502	546	0	517	39	4	
10	0	0	0	0	500	542	0	506	39	4	
11	0	0	0	0	500	535	0	513	38	4	
12	0	0	0	0	502	534	0	508	39	4	
13	0	0	0	0	495	524	0	499	39	4	
14	0	0	0	0	494	525	0	495	39	4	
15	0	0	0	0	507	525	0	488	39	4	
0	0	0	0	0	507	519	0	501	39	4	
1	0	0	0	0	504	513	0	487	39	4	
2	0	0	0	0	505	505	0	488	39	4	
3	0	0	0	0	505	504	0	515	39	4	
4	0	0	0	0	512	505	0	528	39	4	
5	0	0	0	0	511	503	0	523	39	4	
6	0	0	0	0	502	498	0	515	39	4	
7	0	0	0	0	503	493	0	504	39	4	
8	0	0	0	0	506	492	0	498	39	4	
9	0	0	0	0	508	499	0	485	39	4	
10	0	0	0	0	507	507	0	479	39	4	
11	0	0	0	0	504	515	0	478	39	4	
12	0	0	0	0	508	513	0	476	39	4	
13	0	0	0	0	502	506	0	479	39	4	
14	0	0	0	0	499	500	0	477	39	4	
15	0	0	0	0	500	503	0	474	39	4	
0	0	0	0	0	502	509	0	471	39	4	
1	0	0	0	0	505	508	0	467	39	4	
2	0	0	0	0	496	503	0	471	39	4	
3	0	0	0	0	504	502	0	470	39	4	
4	0	0	0	0	504	498	0	471	39	4	
5	0	0	0	0	507	493	0	476	39	4	
6	0	0	0	0	501	490	0	476	39	4	
7	0	0	0	0	497	487	0	481	39	4	
8	0	0	0	0	500	486	0	476	39	4	
9	0	0	0	0	505	482	0	488	39	4	
10	0	0	0	0	508	478	0	476	39	4	
11	0	0	0	0	505	472	0	472	39	4	
12	0	0	0	0	502	467	0	479	39	4	
13	0	0	0	0	503	470	0	478	39	4	
14	0	0	0	0	508	479	0	479	39	4	
15	0	0	0	0	506	494	0	484	39	4	
0	0	0	0	0	501	510	0	485	39	4	
1	0	0	0	0	504	511	0	509	39	4	
2	0	0	0	0	505	490	0	518	39	4	
3	0	0	0	0	505	467	0	514	39	4	
4	0	0	0	0	500	456	0	510	39	4	
5	0	0	0	0	501	453	0	500	39	4	
6	0	0	0	0	506	462	0	499	39	4	
7	0	0	0	0	505	487	0	488	39	4	
8	0	0	0	0	506	493	0	482	39	4	
9	0	0	0	0	504	486	0	479	39	4	
10	0	0	0	0	497	463	0	474	39	4	
11	0	0	0	0	501	448	0	478	39	4	
12	0	0	0	0	502	439	0	476	39	4	
13	0	0	0	0	510	440	0	478	39	4	
14	0	0	0	0	503	447	0	483	39	4	
15	0	0	0	0	507	457	0	479	39	4	
0	0	0	0	0	504	472	0	485	39	4	
1	0	0	0	0	495	481	0	478	39	4	
2	0	0	0	0	508	473	0	475	39	4	
3	0	0	0	0	509	470	0	482	39	4	
4	0	0	0	0	503	464	0	484	39	4	
5	0	0	0	0	499	464	0	491	39	4	
6	0	0	0	0	504	475	0	489	39	4	
7	0	0	0	0	509	487	0	489	39	4	
8	0	0	0	0	500	489	0	487	39	4	
9	0	0	0	0	504	490	0	480	39	4	
10	0	0	0	0	503	483	0	491	39	4	
11	0	0	0	0	505	472	0	515	39	4	
12	0	0	0	0	502	465	0	529	39	4	
13	0	0	0	0	504	456	0	528	39	4	
14	0	0	0	0	503	446	0	539	39	4	
15	0	0	0	0	504	452	0	518	39	4	
0	0	0	0	0	504	458	0	504	39	4	
1	0	0	0	0	504	459	0	494	39	4	
2	0	0	0	0	500	467	0	495	38	4	
3	0	0	0	0	503	471	0	489	39	4	
4	0	0	0	0	502	470	0	494	39	4	
5	0	0	0	0	507	465	0	492	39	4	
6	0	0	0	0	512	464	0	490	39	4	
7	0	0	0	0	497	468	0	492	39	4	
8	0	0	0	0	502	468	0	484	39	4	
9	0	0	0	0	502	460	0	485	39	4	
10	0	0	0	0	504	451	0	480	39	4	
11	0	0	0	0	503	444	0	481	39	4	
12	0	0	0	0	504	439	0	487	39	4	
13	0	0	0	0	505	432	0	486	39	4	
14	0	0	0	0	499	433	0	493	39	4	
15	0	0	0	0	498	437	0	491	39	4	
0	0	0	0	0	511	440	0	486	39	4	
1	0	0	0	0	505	447	0	483	39	4	
2	0	0	0	0	498	466	0	486	39	4	
3	0	0	0	0	502	483	0	513	39	4	
4	0	0	0	0	508	502	0	529	39	4	
5	0	0	0	0	507	510	0	557	39	4	
6	0	0	0	0	506	504	0	552	39	4	
7	0	0	0	0	507	492	0	547	39	4	
8	0	0	0	0	499	492	0	559	39	4	
9	0	0	0	0	498	491	0	555	39	4	
10	0	0	0	0	504	472	0	559	39	4	
11	0	0	0	0	496	460	0	563	38	4	
12	0	0	0	0	510	460	0	559	38	4	
13	0	0	0	0	504	470	0	567	39	4	
14	0	0	0	0	509	475	0	560	39	4	
15	0	0	0	0	500	466	0	559	39	4	
0	0	0	0	0	506	460	0	559	39	4	
1	0	0	0	0	503	464	0	550	39	4	
2	0	0	0	0	495	470	0	557	39	4	
3	0	0	0	0	499	480	0	549	39	4	
4	0	0	0	0	502	488	0	551	39	4	
5	0	0	0	0	493	491	0	560	39	4	
6	0	0	0	0	504	483	0	554	39	4	
7	0	0	0	0	507	474	0	561	39	4	
8	0	0	0	0	509	472	0	554	39	4	
9	0	0	0	0	499	478	0	555	39	4	
10	0	0	0	0	505	479	0	557	39	4	
11	0	0	0	0	513	472	0	553	39	4	
12	0	0	0	0	497	461	0	561	39	4	
13	0	0	0	0	504	448	0	560	39	4	
14	0	0	0	0	508	448	0	564	39	4	
15	0	0	0	0	503	459	0	562	39	4	
0	0	0	0	0	499	467	0	549	39	4	
1	0	0	0	0	497	472	0	532	39	4	
2	0	0	0	0	503	470	0	516	39	4	
3	0	0	0	0	508	474	0	504	38	4	
4	0	0	0	0	508	487	0	499	39	4	
5	0	0	0	0	506	488	0	495	39	4	
6	0	0	0	0	507	484	0	492	39	4	
7	0	0	0	0	505	482	0	488	39	4	
8	0	0	0	0	508	479	0	485	39	4	
9	0	0	0	0	505	481	0	497	39	4	
10	0	0	0	0	498	478	0	520	39	4	
11	0	0	0	0	509	467	0	528	39	4	
12	0	0	0	0	511	463	0	525	39	4	
13	0	0	0	0	502	453	0	529	39	4	
14	0	0	0	0	502	448	0	521	39	4	
15	0	0	0	0	506	449	0	518	39	4	
0	0	0	0	0	501	460	0	534	39	4	
1	0	0	0	0	497	476	0	536	39	4	
2	0	0	0	0	504	484	0	527	39	4	
3	0	0	0	0	498	485	0	519	38	4	
4	0	0	0	0	506	485	0	510	39	4	
5	0	0	0	0	496	491	0	503	39	4	
6	0	0	0	0	506	503	0	498	39	4	
7	0	0	0	0	511	505	0	492	39	4	
8	0	0	0	0	508	504	0	503	39	4	
9	0	0	0	0	497	499	0	519	39	4	
10	0	0	0	0	498	492	0	522	39	4	
11	0	0	0	0	511	484	0	518	38	4	
12	0	0	0	0	506	474	0	510	39	4	
13	0	0	0	0	501	468	0	505	39	4	
14	0	0	0	0	504	465	0	500	39	4	
15	0	0	0	0	505	461	0	498	39	4	
0	0	0	0	0	496	459	0	494	39	4	
1	0	0	0	0	501	463	0	508	39	4	
2	0	0	0	0	501	467	0	528	39	4	
3	0	0	0	0	503	471	0	528	39	4	
4	0	0	0	0	504	480	0	521	39	4	
5	0	0	0	0	499	490	0	509	39	4	
6	0	0	0	0	501	496	0	499	39	4	
7	0	0	0	0	499	499	0	492	39	4	
8	0	0	0	0	512	497	0	488	39	4	
9	0	0	0	0	493	500	0	509	39	4	
10	0	0	0	0	507	501	0	516	39	4	
11	0	0	0	0	502	496	0	517	38	4	
12	0	0	0	0	498	494	0	519	39	4	
13	0	0	0	0	504	487	0	518	39	4	
14	0	0	0	0	504	487	0	514	39	4	
15	0	0	0	0	510	481	0	509	39	4	
0	0	0	0	0	502	472	0	502	39	4	
1	0	0	0	0	511	465	0	512	39	4	
2	0	0	0	0	501	457	0	531	39	4	
3	0	0	0	0	504	446	0	534	39	4	
4	0	0	0	0	505	441	0	526	39	4	
5	0	0	0	0	506	453	0	515	39	4	
6	0	0	0	0	496	470	0	510	39	4	
7	0	0	0	0	497	483	0	504	39	4	
8	0	0	0	0	500	488	0	504	39	4	
9	0	0	0	0	504	487	0	521	39	4	
10	0	0	0	0	505	478	0	536	39	4	
11	0	0	0	0	508	475	0	531	39	4	
12	0	0	0	0	503	472	0	526	39	4	
13	0	0	0	0	500	472	0	519	39	4	
14	0	0	0	0	505	474	0	514	39	4	
15	0	0	0	0	505	470	0	507	39	4	
0	0	0	0	0	504	468	0	515	39	4	
1	0	0	0	0	499	473	0	530	39	4	
2	0	0	0	0	500	479	0	530	39	4	
3	0	0	0	0	504	483	0	526	39	4	
4	0	0	0	0	504	484	0	517	39	4	
5	0	0	0	0	499	487	0	512	39	4	
6	0	0	0	0	508	492	0	504	39	4	
7	0	0	0	0	504	490	0	501	39	4	
8	0	0	0	0	497	484	0	497	39	4	
9	0	0	0	0	502	483	0	514	39	4	
10	0	0	0	0	512	486	0	534	39	4	
11	0	0	0	0	500	488	0	534	39	4	
12	0	0	0	0	505	487	0	529	39	4	
13	0	0	0	0	500	483	0	530	39	4	
14	0	0	0	0	504	478	0	520	39	4	
15	0	0	0	0	504	471	0	524	39	4	
0	0	0	0	0	503	475	0	537	39	4	
1	0	0	0	0	499	487	0	535	39	4	
2	0	0	0	0	505	500	0	526	39	4	
3	0	0	0	0	512	504	0	513	38	4	
4	0	0	0	0	497	508	0	507	39	4	
5	0	0	0	0	507	509	0	498	39	4	
6	0	0	0	0	498	507	0	494	39	4	
7	0	0	0	0	503	510	0	489	39	4	
8	0	0	0	0	504	509	0	485	39	4	
9	0	0	0	0	504	504	0	496	39	4	
10	0	0	0	0	495	504	0	519	39	4	
11	0	0	0	0	500	498	0	525	39	4	
12	0	0	0	0	507	493	0	520	39	4	
13	0	0	0	0	509	488	0	511	39	4	
14	0	0	0	0	509	481	0	506	39	4	
15	0	0	0	0	510	471	0	504	39	4	
0	0	0	0	0	500	474	0	518	39	4	
1	0	0	0	0	501	475	0	519	39	4	
2	0	0	0	0	505	468	0	511	39	4	
3	0	0	0	0	507	476	0	507	39	4	
4	0	0	0	0	507	493	0	498	39	4	
5	0	0	0	0	504	509	0	495	39	4	
6	0	0	0	0	507	516	0	506	39	4	
7	0	0	0	0	503	527	0	488	39	4	
8	0	0	0	0	507	540	0	498	39	4	
9	0	0	0	0	492	548	0	514	39	4	
10	0	0	0	0	498	557	0	518	39	4	
11	0	0	0	0	509	560	0	514	39	4	
12	0	0	0	0	504	556	0	523	39	4	
13	0	0	0	0	489	542	0	540	39	4	
14	0	0	0	0	498	526	0	524	39	4	
15	0	0	0	0	502	505	0	519	39	4	
0	0	0	0	0	504	497	0	509	39	4	
1	0	0	0	0	505	488	0	499	39	4	
2	0	0	0	0	510	481	0	496	39	4	
3	0	0	0	0	505	482	0	490	39	4	
4	0	0	0	0	503	486	0	492	39	4	
5	0	0	0	0	503	488	0	492	39	4	
6	0	0	0	0	511	489	0	489	39	4	
7	0	0	0	0	509	501	0	494	39	4	
8	0	0	0	0	499	509	0	491	39	4	
9	0	0	0	0	498	511	0	492	39	4	
10	0	0	0	0	504	510	0	490	39	4	
11	0	0	0	0	503	504	0	488	39	4	
12	0	0	0	0	501	495	0	495	39	4	
13	0	0	0	0	503	485	0	491	39	4	
14	0	0	0	0	503	487	0	497	39	4	
15	0	0	0	0	505	492	0	496	39	4	
0	0	0	0	0	498	485	0	494	39	4	
1	0	0	0	0	506	468	0	495	39	4	
2	0	0	0	0	501	459	0	492	39	4	
3	0	0	0	0	504	454	0	499	39	4	
4	0	0	0	0	502	452	0	494	39	4	
5	0	0	0	0	509	452	0	494	39	4	
6	0	0	0	0	507	444	0	498	39	4	
7	0	0	0	0	504	439	0	504	39	4	
8	0	0	0	0	495	448	0	527	39	4	
9	0	0	0	0	500	459	0	537	39	4	
10	0	0	0	0	514	471	0	535	39	4	
11	0	0	0	0	499	483	0	527	39	4	
12	0	0	0	0	502	505	0	526	39	4	
13	0	0	0	0	500	517	0	545	39	4	
14	0	0	0	0	505	515	0	547	39	4	
15	0	0	0	0	508	507	0	536	39	4	
0	0	0	0	0	505	496	0	523	39	4	
1	0	0	0	0	505	487	0	529	39	4	
2	0	0	0	0	503	479	0	536	39	4	
3	0	0	0	0	500	472	0	546	39	4	
4	0	0	0	0	500	467	0	560	39	4	
5	0	0	0	0	503	466	0	569	39	4	
6	0	0	0	0	504	471	0	568	39	4	
7	0	0	0	0	500	475	0	576	39	4	
8	0	0	0	0	506	477	0	568	39	4	
9	0	0	0	0	504	482	0	568	39	4	
10	0	0	0	0	504	486	0	577	39	4	
11	0	0	0	0	499	484	0	566	39	4	
12	0	0	0	0	504	488	0	550	39	4	
13	0	0	0	0	507	487	0	535	39	4	
14	0	0	0	0	505	480	0	520	39	4	
15	0	0	0	0	501	474	0	513	39	4	
0	0	0	0	0	503	474	0	508	39	4	
1	0	0	0	0	503	477	0	507	39	4	
2	0	0	0	0	506	487	0	506	39	4	
3	0	0	0	0	502	487	0	520	39	4	
4	0	0	0	0	502	476	0	536	39	4	
5	0	0	0	0	500	469	0	538	39	4	
6	0	0	0	0	498	467	0	536	39	4	
7	0	0	0	0	503	473	0	550	39	4	
8	0	0	0	0	506	476	0	558	39	4	
9	0	0	0	0	509	482	0	551	39	4	
10	0	0	0	0	505	491	0	544	39	4	
11	0	0	0	0	506	499	0	542	38	4	
12	0	0	0	0	506	503	0	534	39	4	
13	0	0	0	0	505	503	0	524	39	4	
14	0	0	0	0	507	499	0	518	39	4	
15	0	0	0	0	500	493	0	524	39	4	
0	0	0	0	0	501	480	0	506	39	4	
1	0	0	0	0	505	474	0	505	39	4	
2	0	0	0	0	500	478	0	522	39	4	
3	0	0	0	0	502	483	0	542	39	4	
4	0	0	0	0	502	496	0	544	39	4	
5	0	0	0	0	498	512	0	537	39	4	
6	0	0	0	0	504	516	0	529	39	4	
7	0	0	0	0	508	512	0	521	39	4	
8	0	0	0	0	511	504	0	526	39	4	
9	0	0	0	0	502	496	0	542	39	4	
10	0	0	0	0	497	488	0	540	39	4	
11	0	0	0	0	499	483	0	533	39	4	
12	0	0	0	0	502	484	0	524	39	4	
13	0	0	0	0	505	489	0	519	39	4	
14	0	0	0	0	503	492	0	512	39	4	
15	0	0	0	0	505	495	0	509	39	4	
0	0	0	0	0	503	504	0	507	39	4	
1	0	0	0	0	503	502	0	522	39	4	
2	0	0	0	0	498	494	0	544	39	4	
3	0	0	0	0	504	489	0	548	39	4	
4	0	0	0	0	502	494	0	542	39	4	
5	0	0	0	0	500	498	0	535	39	4	
6	0	0	0	0	508	499	0	523	39	4	
7	0	0	0	0	504	502	0	529	39	4	
8	0	0	0	0	505	503	0	543	39	4	
9	0	0	0	0	508	504	0	539	39	4	
10	0	0	0	0	500	504	0	531	39	4	
11	0	0	0	0	505	515	0	536	38	4	
12	0	0	0	0	501	546	0	534	39	4	
13	0	0	0	0	507	555	0	526	39	4	
14	0	0	0	0	497	546	0	520	39	4	
15	0	0	0	0	504	539	0	516	39	4	
0	0	0	0	0	506	535	0	511	39	4	
1	0	0	0	0	494	537	0	510	39	4	
2	0	0	0	0	512	539	0	512	39	4	
3	0	0	0	0	507	534	0	535	39	4	
4	0	0	0	0	504	530	0	545	39	4	
5	0	0	0	0	512	523	0	541	39	4	
6	0	0	0	0	512	528	0	531	39	4	
7	0	0	0	0	499	538	0	521	39	4	
8	0	0	0	0	501	547	0	515	39	4	
9	0	0	0	0	507	559	0	513	39	4	
10	0	0	0	0	499	577	0	528	39	4	
11	0	0	0	0	502	588	0	544	39	4	
12	0	0	0	0	504	590	0	544	39	4	
13	0	0	0	0	504	602	0	539	39	4	
14	0	0	0	0	508	608	0	550	39	4	
15	0	0	0	0	508	608	0	551	39	4	
0	0	0	0	0	497	605	0	538	39	4	
1	0	0	0	0	500	601	0	527	39	4	
2	0	0	0	0	504	595	0	516	39	4	
3	0	0	0	0	504	582	0	509	39	4	
4	0	0	0	0	498	558	0	501	39	4	
5	0	0	0	0	504	526	0	499	39	4	
6	0	0	0	0	508	500	0	496	39	4	
7	0	0	0	0	503	493	0	496	39	4	
8	0	0	0	0	498	505	0	492	39	4	
9	0	0	0	0	502	497	0	508	39	4	
10	0	0	0	0	507	489	0	531	39	4	
11	0	0	0	0	496	477	0	535	39	4	
12	0	0	0	0	504	470	0	533	39	4	
13	0	0	0	0	498	460	0	534	39	4	
14	0	0	0	0	505	444	0	527	39	4	
15	0	0	0	0	498	428	0	532	39	4	
0	0	0	0	0	499	412	0	549	39	4	
1	0	0	0	0	500	406	0	546	39	4	
2	0	0	0	0	504	401	0	536	39	4	
3	0	0	0	0	505	385	0	524	39	4	
4	0	0	0	0	512	369	0	515	39	4	
5	0	0	0	0	505	347	0	508	39	4	
6	0	0	0	0	495	323	0	504	39	4	
7	0	0	0	0	510	305	0	499	39	4	
8	0	0	0	0	513	283	0	495	39	4	
9	0	0	0	0	507	270	0	496	39	4	
10	0	0	0	0	503	270	0	500	39	4	
11	0	0	0	0	497	284	0	525	39	4	
12	0	0	0	0	506	299	0	537	39	4	
13	0	0	0	0	500	312	0	551	39	4	
14	0	0	0	0	497	325	0	558	39	4	
15	0	0	0	0	505	335	0	547	39	4	
0	0	0	0	0	498	338	0	532	39	4	
1	0	0	0	0	508	340	0	520	39	4	
2	0	0	0	0	506	342	0	507	39	4	
3	0	0	0	0	504	347	0	502	39	4	
4	0	0	0	0	503	351	0	498	39	4	
5	0	0	0	0	500	353	0	497	39	4	
6	0	0	0	0	505	360	0	492	39	4	
7	0	0	0	0	501	369	0	488	39	4	
8	0	0	0	0	506	379	0	488	39	4	
9	0	0	0	0	503	380	0	481	39	4	
10	0	0	0	0	504	375	0	485	39	4	
11	0	0	0	0	505	379	0	484	38	4	
12	0	0	0	0	504	384	0	484	39	4	
13	0	0	0	0	497	397	0	488	39	4	
14	0	0	0	0	498	413	0	487	39	4	
15	0	0	0	0	508	427	0	492	39	4	
0	0	0	0	0	503	437	0	484	39	4	
1	0	0	0	0	508	435	0	481	39	4	
2	0	0	0	0	499	434	0	483	39	4	
3	0	0	0	0	502	436	0	481	39	4	
4	0	0	0	0	502	446	0	486	39	4	
5	0	0	0	0	507	454	0	485	39	4	
6	0	0	0	0	510	451	0	484	39	4	
7	0	0	0	0	506	452	0	486	39	4	
8	0	0	0	0	496	459	0	480	39	4	
9	0	0	0	0	497	471	0	481	39	4	
10	0	0	0	0	500	479	0	477	39	4	
11	0	0	0	0	497	481	0	476	39	4	
12	0	0	0	0	505	488	0	483	39	4	
13	0	0	0	0	503	492	0	481	39	4	
14	0	0	0	0	502	504	0	487	39	4	
15	0	0	0	0	506	522	0	486	39	4	
0	0	0	0	0	506	537	0	485	39	4	
1	0	0	0	0	502	550	0	485	39	4	
2	0	0	0	0	507	557	0	497	39	4	
3	0	0	0	0	509	566	0	492	39	4	
4	0	0	0	0	502	567	0	514	39	4	
5	0	0	0	0	512	569	0	529	39	4	
6	0	0	0	0	503	574	0	529	39	4	
7	0	0	0	0	503	576	0	519	39	4	
8	0	0	0	0	507	558	0	507	39	4	
9	0	0	0	0	501	545	0	496	39	4	
10	0	0	0	0	511	551	0	487	39	4	
11	0	0	0	0	503	556	0	489	39	4	
12	0	0	0	0	500	556	0	485	39	4	
13	0	0	0	0	499	558	0	489	39	4	
14	0	0	0	0	504	562	0	485	39	4	
15	0	0	0	0	508	566	0	482	39	4	
0	0	0	0	0	503	570	0	497	39	4	
1	0	0	0	0	496	571	0	476	39	4	
2	0	0	0	0	505	574	0	476	39	4	
3	0	0	0	0	497	580	0	475	39	4	
4	0	0	0	0	522	582	0	477	39	4	
5	0	0	0	0	499	589	0	483	39	4	
6	0	0	0	0	500	584	0	483	39	4	
7	0	0	0	0	504	580	0	489	39	4	
8	0	0	0	0	504	566	0	485	39	4	
9	0	0	0	0	509	544	0	483	39	4	
10	0	0	0	0	498	537	0	487	39	4	
11	0	0	0	0	501	540	0	487	39	4	
12	0	0	0	0	509	545	0	493	39	4	
13	0	0	0	0	505	546	0	493	39	4	
14	0	0	0	0	505	551	0	492	39	4	
15	0	0	0	0	497	570	0	494	39	4	
0	0	0	0	0	501	583	0	483	39	4	
1	0	0	0	0	498	589	0	485	39	4	
2	0	0	0	0	503	594	0	481	39	4	
3	0	0	0	0	509	602	0	480	39	4	
4	0	0	0	0	502	603	0	485	39	4	
5	0	0	0	0	500	602	0	483	39	4	
6	0	0	0	0	505	596	0	488	39	4	
7	0	0	0	0	501	580	0	484	39	4	
8	0	0	0	0	508	564	0	481	39	4	
9	0	0	0	0	503	551	0	490	39	4	
10	0	0	0	0	494	547	0	514	39	4	
11	0	0	0	0	508	549	0	527	39	4	
12	0	0	0	0	505	550	0	544	39	4	
13	0	0	0	0	510	550	0	550	39	4	
14	0	0	0	0	499	552	0	551	39	4	
15	0	0	0	0	493	558	0	563	39	4	
0	0	0	0	0	501	568	0	561	39	4	
1	0	0	0	0	506	571	0	566	39	4	
2	0	0	0	0	503	567	0	561	39	4	
3	0	0	0	0	506	567	0	556	39	4	
4	0	0	0	0	495	565	0	559	39	4	
5	0	0	0	0	503	566	0	550	39	4	
6	0	0	0	0	509	569	0	555	39	4	
7	0	0	0	0	512	571	0	555	39	4	
8	0	0	0	0	508	576	0	552	39	4	
9	0	0	0	0	504	573	0	556	39	4	
10	0	0	0	0	499	577	0	548	39	4	
11	0	0	0	0	501	576	0	553	38	4	
12	0	0	0	0	504	572	0	554	39	4	
13	0	0	0	0	498	568	0	554	39	4	
14	0	0	0	0	496	570	0	560	39	4	
15	0	0	0	0	499	571	0	552	39	4	
0	0	0	0	0	508	563	0	529	39	4	
1	0	0	0	0	509	558	0	526	39	4	
2	0	0	0	0	504	568	0	508	39	4	
3	0	0	0	0	504	588	0	521	39	4	
4	0	0	0	0	505	600	0	524	39	4	
5	0	0	0	0	502	602	0	536	39	4	
6	0	0	0	0	508	600	0	542	39	4	
7	0	0	0	0	495	603	0	545	39	4	
8	0	0	0	0	495	608	0	553	39	4	
9	0	0	0	0	502	608	0	541	39	4	
10	0	0	0	0	506	610	0	524	39	4	
11	0	0	0	0	506	604	0	521	39	4	
12	0	0	0	0	503	583	0	513	39	4	
13	0	0	0	0	500	558	0	501	39	4	
14	0	0	0	0	500	542	0	493	39	4	
15	0	0	0	0	502	534	0	484	39	4	
0	0	0	0	0	503	541	0	480	39	4	
1	0	0	0	0	499	552	0	481	39	4	
2	0	0	0	0	505	570	0	483	39	4	
3	0	0	0	0	505	596	0	508	39	4	
4	0	0	0	0	520	611	0	522	39	4	
5	0	0	0	0	508	615	0	514	39	4	
6	0	0	0	0	498	615	0	508	39	4	
7	0	0	0	0	496	607	0	499	39	4	
8	0	0	0	0	495	607	0	496	39	4	
9	0	0	0	0	510	615	0	488	39	4	
10	0	0	0	0	508	617	0	502	39	4	
11	0	0	0	0	496	614	0	517	39	4	
12	0	0	0	0	503	611	0	517	39	4	
13	0	0	0	0	503	609	0	513	39	4	
14	0	0	0	0	502	610	0	526	39	4	
15	0	0	0	0	511	612	0	529	39	4	
0	0	0	0	0	506	606	0	518	39	4	
1	0	0	0	0	503	603	0	505	39	4	
2	0	0	0	0	497	606	0	498	39	4	
3	0	0	0	0	502	617	0	491	39	4	
4	0	0	0	0	506	625	0	484	39	4	
5	0	0	0	0	493	632	0	485	39	4	
6	0	0	0	0	498	646	0	480	39	4	
7	0	0	0	0	507	653	0	482	39	4	
8	0	0	0	0	507	651	0	479	39	4	
9	0	0	0	0	504	645	0	492	39	4	
10	0	0	0	0	496	635	0	518	39	4	
11	0	0	0	0	508	616	0	519	39	4	
12	0	0	0	0	503	604	0	516	39	4	
13	0	0	0	0	507	593	0	517	39	4	
14	0	0	0	0	506	593	0	514	39	4	
15	0	0	0	0	507	599	0	517	39	4	
0	0	0	0	0	502	602	0	532	39	4	
1	0	0	0	0	499	603	0	532	39	4	
2	0	0	0	0	511	600	0	522	39	4	
3	0	0	0	0	504	603	0	509	39	4	
4	0	0	0	0	500	604	0	504	39	4	
5	0	0	0	0	505	606	0	494	39	4	
6	0	0	0	0	502	607	0	493	39	4	
7	0	0	0	0	494	604	0	486	39	4	
8	0	0	0	0	504	598	0	481	39	4	
9	0	0	0	0	512	594	0	495	39	4	
10	0	0	0	0	500	598	0	518	39	4	
11	0	0	0	0	499	593	0	524	39	4	
12	0	0	0	0	507	589	0	519	39	4	
13	0	0	0	0	506	586	0	524	39	4	
14	0	0	0	0	507	593	0	506	39	4	
15	0	0	0	0	505	591	0	504	39	4	
0	0	0	0	0	500	583	0	520	39	4	
1	0	0	0	0	503	577	0	522	39	4	
2	0	0	0	0	505	572	0	513	39	4	
3	0	0	0	0	500	569	0	509	39	4	
4	0	0	0	0	505	574	0	511	39	4	
5	0	0	0	0	507	575	0	501	39	4	
6	0	0	0	0	504	571	0	496	39	4	
7	0	0	0	0	504	567	0	495	39	4	
8	0	0	0	0	497	565	0	505	39	4	
9	0	0	0	0	500	559	0	521	39	4	
10	0	0	0	0	501	563	0	525	39	4	
11	0	0	0	0	506	582	0	533	39	4	
12	0	0	0	0	505	578	0	530	39	4	
13	0	0	0	0	502	553	0	525	39	4	
14	0	0	0	0	507	528	0	516	39	4	
15	0	0	0	0	505	516	0	510	39	4	
0	0	0	0	0	507	519	0	504	39	4	
1	0	0	0	0	503	527	0	500	39	4	
2	0	0	0	0	502	525	0	509	39	4	
3	0	0	0	0	499	515	0	531	39	4	
4	0	0	0	0	499	518	0	536	39	4	
5	0	0	0	0	510	513	0	533	39	4	
6	0	0	0	0	507	504	0	523	39	4	
7	0	0	0	0	504	515	0	518	39	4	
8	0	0	0	0	502	521	0	510	39	4	
9	0	0	0	0	511	520	0	507	39	4	
10	0	0	0	0	506	516	0	525	39	4	
11	0	0	0	0	504	517	0	538	38	4	
12	0	0	0	0	502	516	0	535	39	4	
13	0	0	0	0	508	505	0	526	39	4	
14	0	0	0	0	503	489	0	519	39	4	
15	0	0	0	0	505	478	0	514	39	4	
0	0	0	0	0	498	480	0	524	39	4	
1	0	0	0	0	497	481	0	534	39	4	
2	0	0	0	0	503	485	0	532	39	4	
3	0	0	0	0	501	479	0	524	39	4	
4	0	0	0	0	507	473	0	516	39	4	
5	0	0	0	0	501	479	0	505	39	4	
6	0	0	0	0	500	493	0	501	39	4	
7	0	0	0	0	505	497	0	497	39	4	
8	0	0	0	0	503	493	0	498	39	4	
9	0	0	0	0	506	495	0	514	39	4	
10	0	0	0	0	507	492	0	526	39	4	
11	0	0	0	0	506	493	0	525	39	4	
12	0	0	0	0	504	484	0	515	39	4	
13	0	0	0	0	501	473	0	518	39	4	
14	0	0	0	0	503	455	0	515	39	4	
15	0	0	0	0	504	442	0	510	39	4	
0	0	0	0	0	502	435	0	518	39	4	
1	0	0	0	0	501	435	0	536	39	4	
2	0	0	0	0	504	436	0	535	39	4	
3	0	0	0	0	506	438	0	527	39	4	
4	0	0	0	0	502	443	0	514	39	4	
5	0	0	0	0	505	447	0	510	39	4	
6	0	0	0	0	498	451	0	500	39	4	
7	0	0	0	0	494	457	0	499	39	4	
8	0	0	0	0	507	459	0	498	39	4	
9	0	0	0	0	511	463	0	515	39	4	
10	0	0	0	0	498	460	0	538	39	4	
11	0	0	0	0	505	449	0	539	39	4	
12	0	0	0	0	500	463	0	533	39	4	
13	0	0	0	0	497	478	0	524	39	4	
14	0	0	0	0	504	473	0	512	39	4	
15	0	0	0	0	507	464	0	519	39	4	
0	0	0	0	0	498	451	0	531	39	4	
1	0	0	0	0	502	440	0	529	39	4	
2	0	0	0	0	505	439	0	523	39	4	
3	0	0	0	0	508	446	0	515	39	4	
4	0	0	0	0	512	449	0	512	39	4	
5	0	0	0	0	499	458	0	507	39	4	
6	0	0	0	0	503	475	0	504	39	4	
7	0	0	0	0	504	483	0	502	39	4	
8	0	0	0	0	495	477	0	500	39	4	
9	0	0	0	0	497	466	0	511	39	4	
10	0	0	0	0	499	478	0	534	39	4	
11	0	0	0	0	499	480	0	542	38	4	
12	0	0	0	0	499	480	0	538	39	4	
13	0	0	0	0	516	487	0	540	39	4	
14	0	0	0	0	508	489	0	533	39	4	
15	0	0	0	0	504	479	0	530	39	4	
0	0	0	0	0	503	464	0	547	39	4	
1	0	0	0	0	508	456	0	547	39	4	
2	0	0	0	0	509	449	0	536	39	4	
3	0	0	0	0	502	444	0	526	39	4	
4	0	0	0	0	501	447	0	515	39	4	
5	0	0	0	0	503	452	0	507	39	4	
6	0	0	0	0	505	459	0	502	39	4	
7	0	0	0	0	509	470	0	498	39	4	
8	0	0	0	0	504	480	0	509	39	4	
9	0	0	0	0	496	491	0	524	39	4	
10	0	0	0	0	497	500	0	527	39	4	
11	0	0	0	0	507	502	0	520	39	4	
12	0	0	0	0	508	497	0	512	39	4	
13	0	0	0	0	503	495	0	506	39	4	
14	0	0	0	0	503	494	0	500	39	4	
15	0	0	0	0	504	486	0	497	39	4	
0	0	0	0	0	505	481	0	494	39	4	
1	0	0	0	0	496	486	0	508	39	4	
2	0	0	0	0	501	491	0	526	39	4	
3	0	0	0	0	505	487	0	528	39	4	
4	0	0	0	0	507	467	0	521	39	4	
5	0	0	0	0	507	450	0	513	39	4	
6	0	0	0	0	509	446	0	502	39	4	
7	0	0	0	0	501	442	0	511	39	4	
8	0	0	0	0	501	446	0	523	39	4	
9	0	0	0	0	496	453	0	522	39	4	
10	0	0	0	0	511	456	0	515	39	4	
11	0	0	0	0	500	456	0	520	39	4	
12	0	0	0	0	498	464	0	516	39	4	
13	0	0	0	0	508	467	0	509	39	4	
14	0	0	0	0	502	467	0	503	39	4	
15	0	0	0	0	505	472	0	497	39	4	
0	0	0	0	0	503	471	0	494	39	4	
1	0	0	0	0	502	463	0	504	39	4	
2	0	0	0	0	508	463	0	499	39	4	
3	0	0	0	0	503	456	0	523	39	4	
4	0	0	0	0	495	451	0	534	39	4	
5	0	0	0	0	500	450	0	529	39	4	
6	0	0	0	0	506	447	0	521	39	4	
7	0	0	0	0	505	442	0	511	39	4	
8	0	0	0	0	508	448	0	508	39	4	
9	0	0	0	0	503	455	0	519	39	4	
10	0	0	0	0	502	471	0	529	39	4	
11	0	0	0	0	508	484	0	524	39	4	
12	0	0	0	0	505	499	0	516	39	4	
13	0	0	0	0	502	500	0	508	39	4	
14	0	0	0	0	501	496	0	501	39	4	
15	0	0	0	0	504	492	0	496	39	4	
0	0	0	0	0	499	485	0	502	39	4	
1	0	0	0	0	508	474	0	516	39	4	
2	0	0	0	0	507	468	0	519	39	4	
3	0	0	0	0	503	465	0	515	39	4	
4	0	0	0	0	502	463	0	508	39	4	
5	0	0	0	0	510	463	0	505	39	4	
6	0	0	0	0	502	462	0	498	39	4	
7	0	0	0	0	502	465	0	498	39	4	
8	0	0	0	0	504	469	0	493	39	4	
9	0	0	0	0	503	476	0	509	39	4	
10	0	0	0	0	499	478	0	531	39	4	
11	0	0	0	0	495	482	0	533	39	4	
12	0	0	0	0	503	487	0	531	39	4	
13	0	0	0	0	503	492	0	530	39	4	
14	0	0	0	0	512	496	0	523	39	4	
15	0	0	0	0	506	493	0	526	39	4	
0	0	0	0	0	495	485	0	540	39	4	
1	0	0	0	0	499	474	0	536	39	4	
2	0	0	0	0	504	464	0	525	39	4	
3	0	0	0	0	511	460	0	512	38	4	
4	0	0	0	0	507	462	0	502	39	4	
5	0	0	0	0	496	465	0	496	39	4	
6	0	0	0	0	510	471	0	496	39	4	
7	0	0	0	0	505	474	0	491	39	4	
8	0	0	0	0	496	465	0	504	39	4	
9	0	0	0	0	504	462	0	521	39	4	
10	0	0	0	0	497	480	0	523	39	4	
11	0	0	0	0	499	496	0	516	39	4	
12	0	0	0	0	506	495	0	512	39	4	
13	0	0	0	0	509	488	0	503	39	4	
14	0	0	0	0	503	482	0	500	39	4	
15	0	0	0	0	509	476	0	497	39	4	
0	0	0	0	0	497	474	0	500	39	4	
1	0	0	0	0	503	476	0	517	39	4	
2	0	0	0	0	505	483	0	529	39	4	
3	0	0	0	0	508	486	0	528	39	4	
4	0	0	0	0	507	489	0	521	39	4	
5	0	0	0	0	495	487	0	515	39	4	
6	0	0	0	0	503	482	0	509	39	4	
7	0	0	0	0	502	487	0	502	39	4	
8	0	0	0	0	504	501	0	511	39	4	
9	0	0	0	0	504	501	0	524	39	4	
10	0	0	0	0	499	493	0	526	39	4	
11	0	0	0	0	507	500	0	529	39	4	
12	0	0	0	0	503	502	0	528	39	4	
13	0	0	0	0	503	497	0	525	39	4	
14	0	0	0	0	502	481	0	516	39	4	
15	0	0	0	0	502	476	0	510	39	4	
0	0	0	0	0	511	481	0	505	39	4	
1	0	0	0	0	505	483	0	501	39	4	
2	0	0	0	0	500	486	0	512	39	4	
3	0	0	0	0	502	490	0	537	39	4	
4	0	0	0	0	510	486	0	546	39	4	
5	0	0	0	0	505	483	0	542	39	4	
6	0	0	0	0	511	472	0	532	39	4	
7	0	0	0	0	497	462	0	526	39	4	
8	0	0	0	0	492	459	0	518	39	4	
9	0	0	0	0	504	456	0	516	39	4	
10	0	0	0	0	496	458	0	533	39	4	
11	0	0	0	0	502	475	0	544	38	4	
12	0	0	0	0	497	490	0	540	39	4	
13	0	0	0	0	504	498	0	532	39	4	
14	0	0	0	0	509	494	0	523	39	4	
15	0	0	0	0	509	493	0	518	39	4	
0	0	0	0	0	499	494	0	529	39	4	
1	0	0	0	0	498	496	0	540	39	4	
2	0	0	0	0	507	498	0	538	39	4	
3	0	0	0	0	504	489	0	531	39	4	
4	0	0	0	0	504	483	0	525	39	4	
5	0	0	0	0	512	473	0	517	39	4	
6	0	0	0	0	505	473	0	515	39	4	
7	0	0	0	0	503	480	0	528	39	4	
8	0	0	0	0	503	487	0	514	39	4	
9	0	0	0	0	501	492	0	527	39	4	
10	0	0	0	0	512	489	0	542	39	4	
11	0	0	0	0	500	490	0	539	39	4	
12	0	0	0	0	503	502	0	537	39	4	
13	0	0	0	0	499	516	0	537	39	4	
14	0	0	0	0	502	526	0	545	39	4	
15	0	0	0	0	498	528	0	538	39	4	
0	0	0	0	0	506	524	0	548	39	4	
1	0	0	0	0	506	518	0	544	39	4	
2	0	0	0	0	503	511	0	534	39	4	
3	0	0	0	0	507	513	0	523	39	4	
4	0	0	0	0	512	505	0	512	39	4	
5	0	0	0	0	500	495	0	508	39	4	
6	0	0	0	0	500	487	0	499	39	4	
7	0	0	0	0	499	480	0	497	39	4	
8	0	0	0	0	505	472	0	492	39	4	
9	0	0	0	0	511	471	0	488	39	4	
10	0	0	0	0	502	476	0	491	39	4	
11	0	0	0	0	495	476	0	485	39	4	
12	0	0	0	0	499	483	0	488	39	4	
13	0	0	0	0	496	495	0	484	39	4	
14	0	0	0	0	499	503	0	482	39	4	
15	0	0	0	0	504	515	0	482	39	4	
0	0	0	0	0	509	519	0	475	39	4	
1	0	0	0	0	505	524	0	475	39	4	
2	0	0	0	0	504	530	0	472	39	4	
3	0	0	0	0	504	531	0	472	39	4	
4	0	0	0	0	508	526	0	477	39	4	
5	0	0	0	0	500	511	0	475	39	4	
6	0	0	0	0	506	494	0	480	39	4	
7	0	0	0	0	508	483	0	478	39	4	
8	0	0	0	0	502	477	0	476	39	4	
9	0	0	0	0	494	476	0	478	39	4	
10	0	0	0	0	506	472	0	474	39	4	
11	0	0	0	0	496	471	0	479	39	4	
12	0	0	0	0	505	472	0	479	39	4	
13	0	0	0	0	507	475	0	479	39	4	
14	0	0	0	0	507	488	0	484	39	4	
15	0	0	0	0	504	496	0	480	39	4	
0	0	0	0	0	498	494	0	482	39	4	
1	0	0	0	0	505	495	0	477	39	4	
2	0	0	0	0	511	501	0	475	39	4	
3	0	0	0	0	505	513	0	492	39	4	
4	0	0	0	0	500	519	0	519	39	4	
5	0	0	0	0	502	515	0	531	39	4	
6	0	0	0	0	507	502	0	526	39	4	
7	0	0	0	0	508	488	0	513	39	4	
8	0	0	0	0	498	472	0	503	39	4	
9	0	0	0	0	504	455	0	489	39	4	
10	0	0	0	0	496	455	0	488	39	4	
11	0	0	0	0	498	456	0	483	39	4	
12	0	0	0	0	508	459	0	482	39	4	
13	0	0	0	0	502	476	0	487	39	4	
14	0	0	0	0	499	491	0	481	39	4	
15	0	0	0	0	504	492	0	487	39	4	
0	0	0	0	0	505	489	0	483	39	4	
1	0	0	0	0	506	486	0	479	39	4	
2	0	0	0	0	505	487	0	483	39	4	
3	0	0	0	0	505	487	0	491	39	4	
4	0	0	0	0	501	489	0	494	39	4	
5	0	0	0	0	505	490	0	492	39	4	
6	0	0	0	0	514	481	0	492	39	4	
7	0	0	0	0	498	474	0	495	39	4	
8	0	0	0	0	503	469	0	487	39	4	
9	0	0	0	0	502	471	0	487	39	4	
10	0	0	0	0	508	472	0	483	39	4	
11	0	0	0	0	504	474	0	485	39	4	
12	0	0	0	0	503	486	0	490	39	4	
13	0	0	0	0	503	502	0	491	39	4	
14	0	0	0	0	503	514	0	498	39	4	
15	0	0	0	0	497	527	0	496	39	4	
0	0	0	0	0	512	531	0	493	39	4	
1	0	0	0	0	508	529	0	494	39	4	
2	0	0	0	0	500	516	0	490	39	4	
3	0	0	0	0	505	507	0	494	39	4	
4	0	0	0	0	503	496	0	494	39	4	
5	0	0	0	0	507	488	0	493	39	4	
6	0	0	0	0	504	486	0	495	39	4	
7	0	0	0	0	511	476	0	500	39	4	
8	0	0	0	0	502	462	0	524	39	4	
9	0	0	0	0	497	449	0	530	39	4	
10	0	0	0	0	494	451	0	527	39	4	
11	0	0	0	0	508	463	0	521	39	4	
12	0	0	0	0	503	472	0	512	39	4	
13	0	0	0	0	500	472	0	508	39	4	
14	0	0	0	0	504	472	0	503	39	4	
15	0	0	0	0	508	479	0	494	39	4	
0	0	0	0	0	500	494	0	488	39	4	
1	0	0	0	0	499	507	0	479	39	4	
2	0	0	0	0	504	504	0	481	39	4	
3	0	0	0	0	501	499	0	481	39	4	
4	0	0	0	0	508	502	0	482	39	4	
5	0	0	0	0	504	505	0	492	39	4	
6	0	0	0	0	508	500	0	488	39	4	
7	0	0	0	0	504	489	0	493	39	4	
8	0	0	0	0	504	481	0	489	39	4	
9	0	0	0	0	508	466	0	486	39	4	
10	0	0	0	0	505	457	0	491	39	4	
11	0	0	0	0	506	454	0	497	39	4	
12	0	0	0	0	500	461	0	527	39	4	
13	0	0	0	0	504	468	0	541	39	4	
14	0	0	0	0	497	468	0	557	39	4	
15	0	0	0	0	500	468	0	567	39	4	
0	0	0	0	0	504	467	0	562	39	4	
1	0	0	0	0	503	477	0	572	39	4	
2	0	0	0	0	503	496	0	568	39	4	
3	0	0	0	0	502	509	0	572	39	4	
4	0	0	0	0	503	508	0	577	39	4	
5	0	0	0	0	508	496	0	572	39	4	
6	0	0	0	0	503	478	0	580	39	4	
7	0	0	0	0	513	473	0	572	39	4	
8	0	0	0	0	507	472	0	573	39	4	
9	0	0	0	0	500	479	0	574	39	4	
10	0	0	0	0	504	482	0	568	39	4	
11	0	0	0	0	498	483	0	574	39	4	
12	0	0	0	0	503	488	0	566	39	4	
13	0	0	0	0	507	500	0	565	39	4	
14	0	0	0	0	505	511	0	566	39	4	
15	0	0	0	0	507	509	0	559	39	4	
0	0	0	0	0	505	508	0	568	39	4	
1	0	0	0	0	504	508	0	566	39	4	
2	0	0	0	0	497	511	0	567	39	4	
3	0	0	0	0	500	521	0	568	39	4	
4	0	0	0	0	513	534	0	560	39	4	
5	0	0	0	0	500	548	0	568	39	4	
6	0	0	0	0	502	554	0	562	39	4	
7	0	0	0	0	501	547	0	572	39	4	
8	0	0	0	0	498	551	0	568	39	4	
9	0	0	0	0	511	552	0	560	39	4	
10	0	0	0	0	510	551	0	567	39	4	
11	0	0	0	0	508	550	0	557	39	4	
12	0	0	0	0	509	548	0	539	39	4	
13	0	0	0	0	498	551	0	531	39	4	
14	0	0	0	0	506	559	0	523	39	4	
15	0	0	0	0	503	563	0	513	39	4	
0	0	0	0	0	499	567	0	503	39	4	
1	0	0	0	0	505	568	0	493	39	4	
2	0	0	0	0	503	582	0	489	39	4	
3	0	0	0	0	499	599	0	483	39	4	
4	0	0	0	0	497	612	0	485	39	4	
5	0	0	0	0	504	615	0	481	39	4	
6	0	0	0	0	505	610	0	478	39	4	
7	0	0	0	0	510	592	0	484	39	4	
8	0	0	0	0	499	568	0	479	39	4	
9	0	0	0	0	505	545	0	480	39	4	
10	0	0	0	0	507	522	0	476	39	4	
11	0	0	0	0	507	512	0	475	39	4	
12	0	0	0	0	508	506	0	481	39	4	
13	0	0	0	0	499	496	0	478	39	4	
14	0	0	0	0	505	483	0	483	39	4	
15	0	0	0	0	496	469	0	484	39	4	
0	0	0	0	0	504	455	0	482	39	4	
1	0	0	0	0	498	451	0	481	39	4	
2	0	0	0	0	502	453	0	479	39	4	
3	0	0	0	0	504	451	0	485	39	4	
4	0	0	0	0	504	444	0	481	39	4	
5	0	0	0	0	500	433	0	482	39	4	
6	0	0	0	0	502	423	0	484	39	4	
7	0	0	0	0	509	419	0	489	39	4	
8	0	0	0	0	508	408	0	511	39	4	
9	0	0	0	0	504	385	0	538	39	4	
10	0	0	0	0	499	353	0	518	39	4	
11	0	0	0	0	505	338	0	510	39	4	
12	0	0	0	0	499	333	0	498	39	4	
13	0	0	0	0	506	325	0	494	39	4	
14	0	0	0	0	504	316	0	485	39	4	
15	0	0	0	0	506	308	0	480	39	4	
0	0	0	0	0	503	309	0	488	39	4	
1	0	0	0	0	496	320	0	507	39	4	
2	0	0	0	0	505	344	0	512	39	4	
3	0	0	0	0	500	370	0	530	38	4	
4	0	0	0	0	506	382	0	540	39	4	
5	0	0	0	0	497	382	0	546	39	4	
6	0	0	0	0	497	381	0	556	39	4	
7	0	0	0	0	507	379	0	551	39	4	
8	0	0	0	0	505	387	0	564	39	4	
9	0	0	0	0	510	397	0	552	39	4	
10	0	0	0	0	499	397	0	550	39	4	
11	0	0	0	0	504	383	0	558	39	4	
12	0	0	0	0	499	372	0	550	39	4	
13	0	0	0	0	508	362	0	532	39	4	
14	0	0	0	0	509	355	0	515	39	4	
15	0	0	0	0	497	367	0	505	39	4	
0	0	0	0	0	503	387	0	507	39	4	
1	0	0	0	0	504	407	0	519	39	4	
2	0	0	0	0	508	429	0	521	39	4	
3	0	0	0	0	505	435	0	514	38	4	
4	0	0	0	0	502	438	0	508	39	4	
5	0	0	0	0	502	450	0	500	39	4	
6	0	0	0	0	503	467	0	496	39	4	
7	0	0	0	0	504	470	0	490	39	4	
8	0	0	0	0	503	471	0	504	39	4	
9	0	0	0	0	500	475	0	515	39	4	
10	0	0	0	0	503	478	0	514	39	4	
11	0	0	0	0	498	473	0	513	38	4	
12	0	0	0	0	504	467	0	517	39	4	
13	0	0	0	0	509	459	0	511	39	4	
14	0	0	0	0	503	457	0	509	39	4	
15	0	0	0	0	499	456	0	500	39	4	
0	0	0	0	0	504	467	0	498	39	4	
1	0	0	0	0	506	484	0	494	39	4	
2	0	0	0	0	504	492	0	509	39	4	
3	0	0	0	0	507	507	0	529	39	4	
4	0	0	0	0	503	525	0	539	39	4	
5	0	0	0	0	499	537	0	522	39	4	
6	0	0	0	0	497	544	0	515	39	4	
7	0	0	0	0	512	553	0	506	39	4	
8	0	0	0	0	503	560	0	502	39	4	
9	0	0	0	0	502	565	0	502	39	4	
10	0	0	0	0	495	576	0	525	39	4	
11	0	0	0	0	509	590	0	530	39	4	
12	0	0	0	0	513	581	0	523	39	4	
13	0	0	0	0	507	564	0	518	39	4	
14	0	0	0	0	499	544	0	509	39	4	
15	0	0	0	0	501	528	0	508	39	4	
0	0	0	0	0	496	532	0	521	39	4	
1	0	0	0	0	504	541	0	530	39	4	
2	0	0	0	0	500	543	0	528	39	4	
3	0	0	0	0	504	540	0	519	39	4	
4	0	0	0	0	501	547	0	513	39	4	
5	0	0	0	0	500	561	0	507	39	4	
6	0	0	0	0	509	571	0	502	39	4	
7	0	0	0	0	505	569	0	500	39	4	
8	0	0	0	0	506	565	0	502	39	4	
9	0	0	0	0	499	571	0	524	39	4	
10	0	0	0	0	507	573	0	529	39	4	
11	0	0	0	0	500	575	0	526	39	4	
12	0	0	0	0	502	572	0	529	39	4	
13	0	0	0	0	502	561	0	528	39	4	
14	0	0	0	0	503	553	0	522	39	4	
15	0	0	0	0	515	556	0	518	39	4	
0	0	0	0	0	504	559	0	510	39	4	
1	0	0	0	0	503	566	0	520	39	4	
2	0	0	0	0	496	569	0	541	39	4	
3	0	0	0	0	498	571	0	543	39	4	
4	0	0	0	0	504	569	0	537	39	4	
5	0	0	0	0	503	572	0	525	39	4	
6	0	0	0	0	504	577	0	518	39	4	
7	0	0	0	0	504	575	0	510	39	4	
8	0	0	0	0	496	574	0	504	39	4	
9	0	0	0	0	508	579	0	502	39	4	
10	0	0	0	0	497	588	0	516	39	4	
11	0	0	0	0	502	595	0	538	39	4	
12	0	0	0	0	504	600	0	537	39	4	
13	0	0	0	0	506	591	0	535	39	4	
14	0	0	0	0	509	574	0	546	39	4	
15	0	0	0	0	512	561	0	549	39	4	
0	0	0	0	0	499	560	0	541	39	4	
1	0	0	0	0	503	563	0	530	39	4	
2	0	0	0	0	502	567	0	519	39	4	
3	0	0	0	0	501	567	0	511	39	4	
4	0	0	0	0	505	561	0	504	39	4	
5	0	0	0	0	500	559	0	502	39	4	
6	0	0	0	0	498	561	0	498	39	4	
7	0	0	0	0	496	574	0	499	39	4	
8	0	0	0	0	504	596	0	500	39	4	
9	0	0	0	0	496	615	0	515	39	4	
10	0	0	0	0	501	618	0	539	39	4	
11	0	0	0	0	501	605	0	541	39	4	
12	0	0	0	0	505	600	0	533	39	4	
13	0	0	0	0	512	594	0	523	39	4	
14	0	0	0	0	505	578	0	526	39	4	
15	0	0	0	0	512	567	0	535	39	4	
0	0	0	0	0	500	561	0	551	39	4	
1	0	0	0	0	500	557	0	550	39	4	
2	0	0	0	0	504	560	0	540	39	4	
3	0	0	0	0	515	561	0	527	39	4	
4	0	0	0	0	504	555	0	520	39	4	
5	0	0	0	0	507	558	0	512	39	4	
6	0	0	0	0	499	564	0	511	39	4	
7	0	0	0	0	506	579	0	506	39	4	
8	0	0	0	0	501	590	0	502	39	4	
9	0	0	0	0	497	603	0	511	39	4	
10	0	0	0	0	496	612	0	532	39	4	
11	0	0	0	0	499	608	0	537	39	4	
12	0	0	0	0	505	600	0	532	39	4	
13	0	0	0	0	514	599	0	526	39	4	
14	0	0	0	0	501	597	0	521	39	4	
15	0	0	0	0	496	589	0	519	39	4	
0	0	0	0	0	510	579	0	536	39	4	
1	0	0	0	0	506	572	0	541	39	4	
2	0	0	0	0	503	575	0	532	39	4	
3	0	0	0	0	507	579	0	525	39	4	
4	0	0	0	0	504	585	0	516	39	4	
5	0	0	0	0	493	587	0	508	39	4	
6	0	0	0	0	508	593	0	504	39	4	
7	0	0	0	0	510	588	0	501	39	4	
8	0	0	0	0	502	585	0	512	39	4	
9	0	0	0	0	501	594	0	531	39	4	
10	0	0	0	0	500	603	0	537	39	4	
11	0	0	0	0	507	602	0	534	39	4	
12	0	0	0	0	504	599	0	540	39	4	
13	0	0	0	0	508	603	0	536	39	4	
14	0	0	0	0	499	608	0	526	39	4	
15	0	0	0	0	504	611	0	518	39	4	
0	0	0	0	0	504	608	0	513	39	4	
1	0	0	0	0	507	604	0	507	39	4	
2	0	0	0	0	513	598	0	515	39	4	
3	0	0	0	0	497	593	0	535	39	4	
4	0	0	0	0	500	596	0	537	39	4	
5	0	0	0	0	507	607	0	530	39	4	
6	0	0	0	0	508	607	0	519	39	4	
7	0	0	0	0	496	611	0	512	39	4	
8	0	0	0	0	503	623	0	511	39	4	
9	0	0	0	0	496	644	0	526	39	4	
10	0	0	0	0	502	660	0	531	39	4	
11	0	0	0	0	502	659	0	522	38	4	
12	0	0	0	0	503	652	0	513	39	4	
13	0	0	0	0	508	639	0	503	39	4	
14	0	0	0	0	504	634	0	496	39	4	
15	0	0	0	0	507	627	0	491	39	4	
0	0	0	0	0	504	616	0	500	39	4	
1	0	0	0	0	512	599	0	513	39	4	
2	0	0	0	0	504	591	0	511	39	4	
3	0	0	0	0	498	590	0	504	39	4	
4	0	0	0	0	506	589	0	497	39	4	
5	0	0	0	0	500	588	0	491	39	4	
6	0	0	0	0	505	592	0	488	39	4	
7	0	0	0	0	502	596	0	480	39	4	
8	0	0	0	0	499	607	0	485	39	4	
9	0	0	0	0	512	613	0	500	39	4	
10	0	0	0	0	506	623	0	515	39	4	
11	0	0	0	0	507	627	0	514	39	4	
12	0	0	0	0	508	623	0	513	39	4	
13	0	0	0	0	503	623	0	521	39	4	
14	0	0	0	0	507	627	0	520	39	4	
15	0	0	0	0	502	621	0	530	39	4	
0	0	0	0	0	498	607	0	539	39	4	
1	0	0	0	0	505	589	0	532	39	4	
2	0	0	0	0	500	576	0	521	39	4	
3	0	0	0	0	510	571	0	509	39	4	
4	0	0	0	0	502	568	0	502	39	4	
5	0	0	0	0	499	566	0	495	39	4	
6	0	0	0	0	504	560	0	484	39	4	
7	0	0	0	0	499	559	0	484	39	4	
8	0	0	0	0	499	558	0	481	39	4	
9	0	0	0	0	500	563	0	495	39	4	
10	0	0	0	0	502	565	0	519	39	4	
11	0	0	0	0	505	566	0	520	39	4	
12	0	0	0	0	498	571	0	513	39	4	
13	0	0	0	0	502	568	0	503	39	4	
14	0	0	0	0	507	556	0	494	39	4	
15	0	0	0	0	505	547	0	499	39	4	
0	0	0	0	0	500	553	0	511	39	4	
1	0	0	0	0	508	547	0	507	39	4	
2	0	0	0	0	509	530	0	497	39	4	
3	0	0	0	0	504	511	0	491	39	4	
4	0	0	0	0	500	498	0	490	39	4	
5	0	0	0	0	503	487	0	483	39	4	
6	0	0	0	0	501	488	0	483	39	4	
7	0	0	0	0	508	492	0	478	39	4	
8	0	0	0	0	510	490	0	474	39	4	
9	0	0	0	0	512	489	0	487	39	4	
10	0	0	0	0	502	499	0	508	39	4	
11	0	0	0	0	498	507	0	515	39	4	
12	0	0	0	0	508	511	0	510	39	4	
13	0	0	0	0	501	508	0	518	39	4	
14	0	0	0	0	503	512	0	512	39	4	
15	0	0	0	0	503	518	0	499	39	4	
0	0	0	0	0	506	520	0	494	39	4	
1	0	0	0	0	499	518	0	486	39	4	
2	0	0	0	0	500	507	0	498	39	4	
3	0	0	0	0	497	493	0	518	39	4	
4	0	0	0	0	503	480	0	518	39	4	
5	0	0	0	0	503	484	0	513	39	4	
6	0	0	0	0	512	497	0	524	39	4	
7	0	0	0	0	504	501	0	535	39	4	
8	0	0	0	0	502	494	0	515	39	4	
9	0	0	0	0	509	481	0	502	39	4	
10	0	0	0	0	495	479	0	494	39	4	
11	0	0	0	0	500	481	0	484	39	4	
12	0	0	0	0	509	483	0	478	39	4	
13	0	0	0	0	504	488	0	479	39	4	
14	0	0	0	0	502	489	0	470	39	4	
15	0	0	0	0	495	487	0	472	39	4	
0	0	0	0	0	505	490	0	467	39	4	
1	0	0	0	0	504	498	0	482	39	4	
2	0	0	0	0	503	499	0	507	39	4	
3	0	0	0	0	510	481	0	509	39	4	
4	0	0	0	0	505	465	0	504	39	4	
5	0	0	0	0	503	458	0	492	39	4	
6	0	0	0	0	498	452	0	481	39	4	
7	0	0	0	0	500	448	0	473	39	4	
8	0	0	0	0	504	451	0	460	39	4	
9	0	0	0	0	503	457	0	457	39	4	
10	0	0	0	0	500	460	0	452	39	4	
11	0	0	0	0	506	461	0	455	39	4	
12	0	0	0	0	507	467	0	460	39	4	
13	0	0	0	0	502	474	0	457	39	4	
14	0	0	0	0	503	480	0	460	39	4	
15	0	0	0	0	497	480	0	455	39	4	
0	0	0	0	0	501	476	0	454	39	4	
1	0	0	0	0	506	476	0	456	39	4	
2	0	0	0	0	507	476	0	450	39	4	
3	0	0	0	0	497	476	0	455	39	4	
4	0	0	0	0	502	467	0	456	39	4	
5	0	0	0	0	510	454	0	459	39	4	
6	0	0	0	0	508	448	0	464	39	4	
7	0	0	0	0	506	452	0	460	39	4	
8	0	0	0	0	503	452	0	461	39	4	
9	0	0	0	0	504	455	0	455	39	4	
10	0	0	0	0	499	455	0	457	39	4	
11	0	0	0	0	507	455	0	476	39	4	
12	0	0	0	0	509	463	0	457	39	4	
13	0	0	0	0	500	473	0	460	39	4	
14	0	0	0	0	503	474	0	457	39	4	
15	0	0	0	0	507	475	0	458	39	4	
0	0	0	0	0	510	466	0	468	39	4	
1	0	0	0	0	501	459	0	484	39	4	
2	0	0	0	0	504	461	0	491	39	4	
3	0	0	0	0	505	467	0	483	39	4	
4	0	0	0	0	502	465	0	476	39	4	
5	0	0	0	0	505	466	0	476	39	4	
6	0	0	0	0	498	466	0	467	39	4	
7	0	0	0	0	499	468	0	469	39	4	
8	0	0	0	0	505	467	0	461	39	4	
9	0	0	0	0	511	473	0	462	39	4	
10	0	0	0	0	504	482	0	463	39	4	
11	0	0	0	0	498	480	0	457	39	4	
12	0	0	0	0	501	481	0	462	39	4	
13	0	0	0	0	499	472	0	460	39	4	
14	0	0	0	0	500	478	0	462	39	4	
15	0	0	0	0	503	498	0	465	39	4	
0	0	0	0	0	508	508	0	456	39	4	
1	0	0	0	0	499	503	0	458	39	4	
2	0	0	0	0	504	485	0	452	39	4	
3	0	0	0	0	505	472	0	457	39	4	
4	0	0	0	0	509	468	0	460	39	4	
5	0	0	0	0	510	462	0	456	39	4	
6	0	0	0	0	502	453	0	463	39	4	
7	0	0	0	0	504	447	0	461	39	4	
8	0	0	0	0	500	456	0	477	39	4	
9	0	0	0	0	500	475	0	463	39	4	
10	0	0	0	0	504	477	0	456	39	4	
11	0	0	0	0	502	472	0	465	39	4	
12	0	0	0	0	498	468	0	489	39	4	
13	0	0	0	0	507	472	0	508	39	4	
14	0	0	0	0	508	481	0	513	39	4	
15	0	0	0	0	504	482	0	504	39	4	
0	0	0	0	0	499	476	0	499	39	4	
1	0	0	0	0	505	475	0	489	39	4	
2	0	0	0	0	507	480	0	481	39	4	
3	0	0	0	0	510	488	0	480	39	4	
4	0	0	0	0	499	497	0	475	39	4	
5	0	0	0	0	499	502	0	478	39	4	
6	0	0	0	0	501	492	0	476	39	4	
7	0	0	0	0	503	481	0	476	39	4	
8	0	0	0	0	505	475	0	475	39	4	
9	0	0	0	0	505	472	0	466	39	4	
10	0	0	0	0	497	471	0	472	39	4	
11	0	0	0	0	508	468	0	471	39	4	
12	0	0	0	0	507	463	0	472	39	4	
13	0	0	0	0	504	465	0	478	39	4	
14	0	0	0	0	502	468	0	477	39	4	
15	0	0	0	0	502	475	0	484	39	4	
0	0	0	0	0	506	475	0	477	39	4	
1	0	0	0	0	503	481	0	473	39	4	
2	0	0	0	0	503	487	0	478	39	4	
3	0	0	0	0	502	494	0	478	39	4	
4	0	0	0	0	503	496	0	483	39	4	
5	0	0	0	0	504	497	0	482	39	4	
6	0	0	0	0	508	490	0	484	39	4	
7	0	0	0	0	499	489	0	484	39	4	
8	0	0	0	0	503	481	0	487	39	4	
9	0	0	0	0	501	472	0	513	39	4	
10	0	0	0	0	512	465	0	525	39	4	
11	0	0	0	0	505	463	0	522	39	4	
12	0	0	0	0	499	470	0	517	39	4	
13	0	0	0	0	495	469	0	510	39	4	
14	0	0	0	0	505	476	0	508	39	4	
15	0	0	0	0	505	486	0	525	39	4	
0	0	0	0	0	508	492	0	533	39	4	
1	0	0	0	0	497	495	0	540	39	4	
2	0	0	0	0	494	500	0	558	39	4	
3	0	0	0	0	501	506	0	560	39	4	
4	0	0	0	0	498	506	0	571	39	4	
5	0	0	0	0	511	505	0	568	39	4	
6	0	0	0	0	505	502	0	569	39	4	
7	0	0	0	0	504	486	0	580	39	4	
8	0	0	0	0	503	466	0	575	39	4	
9	0	0	0	0	502	459	0	579	39	4	
10	0	0	0	0	509	463	0	575	39	4	
11	0	0	0	0	503	475	0	568	39	4	
12	0	0	0	0	502	479	0	574	39	4	
13	0	0	0	0	508	474	0	567	39	4	
14	0	0	0	0	508	472	0	570	39	4	
15	0	0	0	0	506	472	0	566	39	4	
0	0	0	0	0	502	477	0	562	39	4	
1	0	0	0	0	496	488	0	569	39	4	
2	0	0	0	0	500	502	0	560	39	4	
3	0	0	0	0	500	507	0	566	38	4	
4	0	0	0	0	508	507	0	567	39	4	
5	0	0	0	0	505	501	0	564	39	4	
6	0	0	0	0	499	492	0	573	39	4	
7	0	0	0	0	512	490	0	569	39	4	
8	0	0	0	0	501	487	0	571	39	4	
9	0	0	0	0	497	483	0	566	39	4	
10	0	0	0	0	501	478	0	564	39	4	
11	0	0	0	0	502	475	0	572	39	4	
12	0	0	0	0	503	463	0	562	39	4	
13	0	0	0	0	508	460	0	546	39	4	
14	0	0	0	0	503	472	0	525	39	4	
15	0	0	0	0	499	475	0	515	39	4	
0	0	0	0	0	509	487	0	509	39	4	
1	0	0	0	0	499	504	0	528	39	4	
2	0	0	0	0	503	508	0	532	39	4	
3	0	0	0	0	503	509	0	525	39	4	
4	0	0	0	0	501	505	0	517	39	4	
5	0	0	0	0	503	491	0	507	39	4	
6	0	0	0	0	499	486	0	501	39	4	
7	0	0	0	0	502	486	0	497	39	4	
8	0	0	0	0	509	480	0	509	39	4	
9	0	0	0	0	508	488	0	522	39	4	
10	0	0	0	0	508	491	0	521	39	4	
11	0	0	0	0	505	487	0	519	38	4	
12	0	0	0	0	501	483	0	521	39	4	
13	0	0	0	0	512	489	0	513	39	4	
14	0	0	0	0	500	490	0	508	39	4	
15	0	0	0	0	506	484	0	502	39	4	
0	0	0	0	0	498	483	0	498	39	4	
1	0	0	0	0	501	494	0	495	39	4	
2	0	0	0	0	502	509	0	510	39	4	
3	0	0	0	0	499	518	0	529	39	4	
4	0	0	0	0	504	527	0	528	39	4	
5	0	0	0	0	508	539	0	519	39	4	
6	0	0	0	0	510	540	0	510	39	4	
7	0	0	0	0	505	537	0	499	39	4	
8	0	0	0	0	496	529	0	496	39	4	
9	0	0	0	0	502	513	0	495	39	4	
10	0	0	0	0	502	502	0	517	39	4	
11	0	0	0	0	504	494	0	524	39	4	
12	0	0	0	0	507	489	0	516	39	4	
13	0	0	0	0	504	475	0	510	39	4	
14	0	0	0	0	499	468	0	502	39	4	
15	0	0	0	0	503	473	0	500	39	4	
0	0	0	0	0	502	484	0	512	39	4	
1	0	0	0	0	503	492	0	521	39	4	
2	0	0	0	0	497	503	0	518	39	4	
3	0	0	0	0	499	526	0	510	39	4	
4	0	0	0	0	499	536	0	503	39	4	
5	0	0	0	0	504	524	0	512	39	4	
6	0	0	0	0	501	510	0	492	39	4	
7	0	0	0	0	503	516	0	489	39	4	
8	0	0	0	0	510	518	0	492	39	4	
9	0	0	0	0	503	504	0	512	39	4	
10	0	0	0	0	511	489	0	518	39	4	
11	0	0	0	0	513	475	0	512	38	4	
12	0	0	0	0	505	469	0	515	39	4	
13	0	0	0	0	504	479	0	511	39	4	
14	0	0	0	0	501	481	0	506	39	4	
15	0	0	0	0	503	477	0	497	39	4	
0	0	0	0	0	508	479	0	492	39	4	
1	0	0	0	0	501	490	0	499	39	4	
2	0	0	0	0	499	508	0	515	39	4	
3	0	0	0	0	505	515	0	519	39	4	
4	0	0	0	0	506	515	0	510	39	4	
5	0	0	0	0	508	509	0	500	39	4	
6	0	0	0	0	503	505	0	495	39	4	
7	0	0	0	0	498	498	0	487	39	4	
8	0	0	0	0	500	494	0	484	39	4	
9	0	0	0	0	505	491	0	486	39	4	
10	0	0	0	0	500	486	0	491	39	4	
11	0	0	0	0	504	477	0	511	39	4	
12	0	0	0	0	500	471	0	510	39	4	
13	0	0	0	0	505	480	0	506	39	4	
14	0	0	0	0	502	486	0	518	39	4	
15	0	0	0	0	500	486	0	520	39	4	
0	0	0	0	0	503	487	0	511	39	4	
1	0	0	0	0	502	488	0	497	39	4	
2	0	0	0	0	499	491	0	490	39	4	
3	0	0	0	0	504	504	0	478	39	4	
4	0	0	0	0	505	520	0	471	39	4	
5	0	0	0	0	504	523	0	471	39	4	
6	0	0	0	0	502	519	0	465	39	4	
7	0	0	0	0	504	515	0	473	39	4	
8	0	0	0	0	500	511	0	484	39	4	
9	0	0	0	0	513	507	0	494	39	4	
10	0	0	0	0	506	497	0	496	39	4	
11	0	0	0	0	509	479	0	494	39	4	
12	0	0	0	0	502	467	0	500	39	4	
13	0	0	0	0	502	459	0	495	39	4	
14	0	0	0	0	502	459	0	479	39	4	
15	0	0	0	0	504	468	0	478	39	4	
0	0	0	0	0	505	481	0	467	39	4	
1	0	0	0	0	504	488	0	467	39	4	
2	0	0	0	0	503	490	0	464	39	4	
3	0	0	0	0	504	485	0	483	39	4	
4	0	0	0	0	503	483	0	497	39	4	
5	0	0	0	0	495	479	0	498	39	4	
6	0	0	0	0	495	476	0	494	39	4	
7	0	0	0	0	506	492	0	485	39	4	
8	0	0	0	0	508	515	0	480	39	4	
9	0	0	0	0	510	528	0	487	39	4	
10	0	0	0	0	495	530	0	505	39	4	
11	0	0	0	0	499	522	0	508	39	4	
12	0	0	0	0	502	514	0	500	39	4	
13	0	0	0	0	504	510	0	492	39	4	
14	0	0	0	0	512	507	0	488	39	4	
15	0	0	0	0	506	498	0	486	39	4	
0	0	0	0	0	505	488	0	519	39	4	
1	0	0	0	0	504	481	0	512	39	4	
2	0	0	0	0	509	481	0	503	39	4	
3	0	0	0	0	508	489	0	499	39	4	
4	0	0	0	0	494	501	0	491	39	4	
5	0	0	0	0	499	516	0	487	39	4	
6	0	0	0	0	496	523	0	480	39	4	
7	0	0	0	0	497	525	0	476	39	4	
8	0	0	0	0	508	521	0	484	39	4	
9	0	0	0	0	505	511	0	500	39	4	
10	0	0	0	0	506	499	0	504	39	4	
11	0	0	0	0	505	484	0	498	39	4	
12	0	0	0	0	499	469	0	505	39	4	
13	0	0	0	0	507	455	0	501	39	4	
14	0	0	0	0	502	454	0	493	39	4	
15	0	0	0	0	504	462	0	488	39	4	
0	0	0	0	0	504	470	0	480	39	4	
1	0	0	0	0	504	481	0	472	39	4	
2	0	0	0	0	497	495	0	483	39	4	
3	0	0	0	0	502	510	0	504	39	4	
4	0	0	0	0	503	508	0	510	39	4	
5	0	0	0	0	507	507	0	504	39	4	
6	0	0	0	0	505	514	0	493	39	4	
7	0	0	0	0	500	516	0	491	39	4	
8	0	0	0	0	502	526	0	482	39	4	
9	0	0	0	0	502	535	0	482	39	4	
10	0	0	0	0	497	532	0	496	39	4	
11	0	0	0	0	508	523	0	509	39	4	
12	0	0	0	0	503	513	0	509	39	4	
13	0	0	0	0	500	506	0	500	39	4	
14	0	0	0	0	498	500	0	493	39	4	
15	0	0	0	0	502	488	0	485	39	4	
0	0	0	0	0	506	482	0	496	39	4	
1	0	0	0	0	505	487	0	507	39	4	
2	0	0	0	0	504	494	0	505	39	4	
3	0	0	0	0	499	500	0	500	39	4	
4	0	0	0	0	510	500	0	493	39	4	
5	0	0	0	0	508	495	0	485	39	4	
6	0	0	0	0	502	509	0	486	39	4	
7	0	0	0	0	498	515	0	477	39	4	
8	0	0	0	0	501	516	0	481	39	4	
9	0	0	0	0	504	523	0	498	39	4	
10	0	0	0	0	505	523	0	512	39	4	
11	0	0	0	0	504	532	0	513	39	4	
12	0	0	0	0	501	543	0	515	39	4	
13	0	0	0	0	498	546	0	518	39	4	
14	0	0	0	0	507	534	0	509	39	4	
15	0	0	0	0	506	516	0	498	39	4	
0	0	0	0	0	505	507	0	505	39	4	
1	0	0	0	0	499	505	0	524	39	4	
2	0	0	0	0	508	507	0	525	39	4	
3	0	0	0	0	506	516	0	527	39	4	
4	0	0	0	0	505	524	0	511	39	4	
5	0	0	0	0	505	537	0	504	39	4	
6	0	0	0	0	499	551	0	497	39	4	
7	0	0	0	0	496	564	0	496	39	4	
8	0	0	0	0	502	581	0	492	39	4	
9	0	0	0	0	505	597	0	506	39	4	
10	0	0	0	0	511	604	0	529	39	4	
11	0	0	0	0	514	602	0	531	39	4	
12	0	0	0	0	496	611	0	523	39	4	
13	0	0	0	0	501	619	0	510	39	4	
14	0	0	0	0	503	608	0	502	39	4	
15	0	0	0	0	504	592	0	507	39	4	
0	0	0	0	0	494	576	0	518	39	4	
1	0	0	0	0	502	572	0	516	39	4	
2	0	0	0	0	503	580	0	508	39	4	
3	0	0	0	0	504	584	0	500	39	4	
4	0	0	0	0	500	577	0	497	39	4	
5	0	0	0	0	501	564	0	489	39	4	
6	0	0	0	0	500	556	0	490	39	4	
7	0	0	0	0	498	544	0	487	39	4	
8	0	0	0	0	508	534	0	484	39	4	
9	0	0	0	0	501	529	0	495	39	4	
10	0	0	0	0	500	521	0	516	39	4	
11	0	0	0	0	497	509	0	521	39	4	
12	0	0	0	0	503	494	0	513	39	4	
13	0	0	0	0	504	478	0	503	39	4	
14	0	0	0	0	504	470	0	497	39	4	
15	0	0	0	0	510	458	0	496	39	4	
0	0	0	0	0	500	438	0	517	39	4	
1	0	0	0	0	506	420	0	525	39	4	
2	0	0	0	0	503	402	0	515	39	4	
3	0	0	0	0	502	391	0	507	39	4	
4	0	0	0	0	504	387	0	496	39	4	
5	0	0	0	0	492	383	0	492	39	4	
6	0	0	0	0	505	375	0	483	39	4	
7	0	0	0	0	505	366	0	479	39	4	
8	0	0	0	0	507	357	0	481	39	4	
9	0	0	0	0	507	348	0	480	39	4	
10	0	0	0	0	500	353	0	502	39	4	
11	0	0	0	0	511	359	0	510	39	4	
12	0	0	0	0	507	355	0	505	39	4	
13	0	0	0	0	504	349	0	501	39	4	
14	0	0	0	0	510	347	0	493	39	4	
15	0	0	0	0	501	350	0	495	39	4	
0	0	0	0	0	502	351	0	504	39	4	
1	0	0	0	0	507	361	0	512	39	4	
2	0	0	0	0	501	376	0	510	39	4	
3	0	0	0	0	499	382	0	502	38	4	
4	0	0	0	0	507	379	0	496	39	4	
5	0	0	0	0	502	380	0	489	39	4	
6	0	0	0	0	509	380	0	486	39	4	
7	0	0	0	0	501	379	0	485	39	4	
8	0	0	0	0	499	386	0	484	39	4	
9	0	0	0	0	500	403	0	504	39	4	
10	0	0	0	0	508	411	0	512	39	4	
11	0	0	0	0	508	412	0	508	38	4	
12	0	0	0	0	500	422	0	512	39	4	
13	0	0	0	0	505	437	0	509	39	4	
14	0	0	0	0	497	438	0	504	39	4	
15	0	0	0	0	503	437	0	499	39	4	
0	0	0	0	0	509	438	0	494	39	4	
1	0	0	0	0	507	446	0	503	39	4	
2	0	0	0	0	492	462	0	532	39	4	
3	0	0	0	0	507	475	0	528	39	4	
4	0	0	0	0	503	485	0	522	39	4	
5	0	0	0	0	507	481	0	512	39	4	
6	0	0	0	0	504	472	0	505	39	4	
7	0	0	0	0	502	473	0	498	39	4	
8	0	0	0	0	496	470	0	495	39	4	
9	0	0	0	0	507	476	0	502	39	4	
10	0	0	0	0	503	486	0	503	39	4	
11	0	0	0	0	502	492	0	523	39	4	
12	0	0	0	0	500	504	0	523	39	4	
13	0	0	0	0	497	515	0	518	39	4	
14	0	0	0	0	507	519	0	529	39	4	
15	0	0	0	0	502	526	0	532	39	4	
0	0	0	0	0	506	534	0	524	39	4	
1	0	0	0	0	503	541	0	513	39	4	
2	0	0	0	0	503	540	0	504	39	4	
3	0	0	0	0	497	541	0	498	39	4	
4	0	0	0	0	509	543	0	494	39	4	
5	0	0	0	0	507	537	0	493	39	4	
6	0	0	0	0	501	539	0	496	39	4	
7	0	0	0	0	499	540	0	489	39	4	
8	0	0	0	0	510	544	0	487	39	4	
9	0	0	0	0	498	550	0	502	39	4	
10	0	0	0	0	507	563	0	527	39	4	
11	0	0	0	0	502	572	0	527	39	4	
12	0	0	0	0	502	582	0	523	39	4	
13	0	0	0	0	508	590	0	524	39	4	
14	0	0	0	0	504	588	0	513	39	4	
15	0	0	0	0	504	588	0	518	39	4	
0	0	0	0	0	502	579	0	533	39	4	
1	0	0	0	0	508	575	0	530	39	4	
2	0	0	0	0	506	563	0	520	39	4	
3	0	0	0	0	506	557	0	510	39	4	
4	0	0	0	0	507	564	0	499	39	4	
5	0	0	0	0	496	590	0	489	39	4	
6	0	0	0	0	501	594	0	486	39	4	
7	0	0	0	0	503	583	0	480	39	4	
8	0	0	0	0	506	585	0	478	39	4	
9	0	0	0	0	502	594	0	478	39	4	
10	0	0	0	0	499	591	0	474	39	4	
11	0	0	0	0	498	596	0	476	39	4	
12	0	0	0	0	506	599	0	474	39	4	
13	0	0	0	0	509	591	0	473	39	4	
14	0	0	0	0	502	592	0	478	39	4	
15	0	0	0	0	511	584	0	474	39	4	
0	0	0	0	0	500	577	0	475	39	4	
1	0	0	0	0	507	576	0	470	39	4	
2	0	0	0	0	499	574	0	470	39	4	
3	0	0	0	0	502	575	0	473	39	4	
4	0	0	0	0	506	575	0	470	39	4	
5	0	0	0	0	501	576	0	473	39	4	
6	0	0	0	0	501	574	0	472	39	4	
7	0	0	0	0	503	567	0	473	39	4	
8	0	0	0	0	506	568	0	473	39	4	
9	0	0	0	0	501	571	0	466	39	4	
10	0	0	0	0	498	577	0	471	39	4	
11	0	0	0	0	500	583	0	472	39	4	
12	0	0	0	0	505	584	0	492	39	4	
13	0	0	0	0	508	578	0	516	39	4	
14	0	0	0	0	502	568	0	518	39	4	
15	0	0	0	0	503	564	0	515	39	4	
0	0	0	0	0	504	568	0	498	39	4	
1	0	0	0	0	510	565	0	488	39	4	
2	0	0	0	0	505	567	0	485	39	4	
3	0	0	0	0	504	561	0	478	39	4	
4	0	0	0	0	503	563	0	481	39	4	
5	0	0	0	0	511	574	0	494	39	4	
6	0	0	0	0	502	584	0	479	39	4	
7	0	0	0	0	506	589	0	478	39	4	
8	0	0	0	0	499	589	0	472	39	4	
9	0	0	0	0	503	596	0	473	39	4	
10	0	0	0	0	500	598	0	472	39	4	
11	0	0	0	0	510	594	0	475	39	4	
12	0	0	0	0	498	596	0	478	39	4	
13	0	0	0	0	496	599	0	477	39	4	
14	0	0	0	0	497	598	0	485	39	4	
15	0	0	0	0	500	591	0	483	39	4	
0	0	0	0	0	509	597	0	481	39	4	
1	0	0	0	0	504	606	0	483	39	4	
2	0	0	0	0	507	610	0	479	39	4	
3	0	0	0	0	501	607	0	483	39	4	
4	0	0	0	0	512	593	0	486	39	4	
5	0	0	0	0	502	587	0	505	39	4	
6	0	0	0	0	497	593	0	528	39	4	
7	0	0	0	0	505	592	0	528	39	4	
8	0	0	0	0	504	588	0	518	39	4	
9	0	0	0	0	500	586	0	502	39	4	
10	0	0	0	0	510	580	0	493	39	4	
11	0	0	0	0	503	580	0	491	39	4	
12	0	0	0	0	500	591	0	486	39	4	
13	0	0	0	0	493	612	0	490	39	4	
14	0	0	0	0	506	624	0	487	39	4	
15	0	0	0	0	503	629	0	486	39	4	
0	0	0	0	0	507	625	0	482	39	4	
1	0	0	0	0	504	617	0	477	39	4	
2	0	0	0	0	512	622	0	482	39	4	
3	0	0	0	0	505	627	0	482	39	4	
4	0	0	0	0	508	618	0	485	39	4	
5	0	0	0	0	507	604	0	491	39	4	
6	0	0	0	0	494	590	0	490	39	4	
7	0	0	0	0	499	582	0	494	39	4	
8	0	0	0	0	506	583	0	487	39	4	
9	0	0	0	0	506	591	0	483	39	4	
10	0	0	0	0	503	599	0	487	39	4	
11	0	0	0	0	510	598	0	485	39	4	
12	0	0	0	0	496	610	0	491	39	4	
13	0	0	0	0	499	626	0	493	39	4	
14	0	0	0	0	502	636	0	489	39	4	
15	0	0	0	0	500	642	0	491	39	4	
0	0	0	0	0	503	647	0	495	39	4	
1	0	0	0	0	504	651	0	521	39	4	
2	0	0	0	0	507	649	0	531	39	4	
3	0	0	0	0	510	649	0	529	39	4	
4	0	0	0	0	503	653	0	523	39	4	
5	0	0	0	0	504	647	0	512	39	4	
6	0	0	0	0	505	636	0	507	39	4	
7	0	0	0	0	507	629	0	497	39	4	
8	0	0	0	0	508	624	0	491	39	4	
9	0	0	0	0	502	625	0	489	39	4	
10	0	0	0	0	500	630	0	492	39	4	
11	0	0	0	0	504	628	0	489	39	4	
12	0	0	0	0	506	616	0	487	39	4	
13	0	0	0	0	503	622	0	487	39	4	
14	0	0	0	0	503	639	0	492	39	4	
15	0	0	0	0	499	646	0	488	39	4	
0	0	0	0	0	506	648	0	492	39	4	
1	0	0	0	0	503	641	0	487	39	4	
2	0	0	0	0	504	627	0	486	39	4	
3	0	0	0	0	504	613	0	494	39	4	
4	0	0	0	0	501	613	0	493	39	4	
5	0	0	0	0	508	613	0	499	39	4	
6	0	0	0	0	499	608	0	500	39	4	
7	0	0	0	0	507	601	0	499	39	4	
8	0	0	0	0	498	594	0	499	39	4	
9	0	0	0	0	508	579	0	491	39	4	
10	0	0	0	0	508	571	0	496	39	4	
11	0	0	0	0	501	569	0	497	39	4	
12	0	0	0	0	502	577	0	499	39	4	
13	0	0	0	0	503	590	0	504	39	4	
14	0	0	0	0	501	598	0	499	39	4	
15	0	0	0	0	493	617	0	502	39	4	
0	0	0	0	0	507	626	0	494	39	4	
1	0	0	0	0	510	625	0	494	39	4	
2	0	0	0	0	510	622	0	501	39	4	
3	0	0	0	0	507	611	0	513	39	4	
4	0	0	0	0	504	601	0	542	39	4	
5	0	0	0	0	502	594	0	565	39	4	
6	0	0	0	0	505	593	0	555	39	4	
7	0	0	0	0	501	587	0	545	39	4	
8	0	0	0	0	507	570	0	536	39	4	
9	0	0	0	0	513	559	0	530	39	4	
10	0	0	0	0	505	543	0	523	39	4	
11	0	0	0	0	505	534	0	517	39	4	
12	0	0	0	0	504	530	0	517	39	4	
13	0	0	0	0	498	532	0	510	39	4	
14	0	0	0	0	500	541	0	507	39	4	
15	0	0	0	0	501	556	0	498	39	4	
0	0	0	0	0	502	571	0	496	39	4	
1	0	0	0	0	507	577	0	506	39	4	
2	0	0	0	0	503	574	0	538	39	4	
3	0	0	0	0	504	567	0	542	39	4	
4	0	0	0	0	500	557	0	563	39	4	
5	0	0	0	0	505	545	0	576	39	4	
6	0	0	0	0	505	547	0	580	39	4	
7	0	0	0	0	502	537	0	589	39	4	
8	0	0	0	0	504	523	0	580	39	4	
9	0	0	0	0	507	514	0	562	39	4	
10	0	0	0	0	508	511	0	545	39	4	
11	0	0	0	0	498	506	0	543	39	4	
12	0	0	0	0	496	502	0	558	39	4	
13	0	0	0	0	500	501	0	560	39	4	
14	0	0	0	0	503	499	0	573	39	4	
15	0	0	0	0	515	505	0	579	39	4	
0	0	0	0	0	509	517	0	581	39	4	
1	0	0	0	0	500	523	0	587	39	4	
2	0	0	0	0	505	516	0	580	39	4	
3	0	0	0	0	501	502	0	583	39	4	
4	0	0	0	0	499	504	0	583	39	4	
5	0	0	0	0	505	506	0	579	39	4	
6	0	0	0	0	501	503	0	585	39	4	
7	0	0	0	0	503	495	0	577	39	4	
8	0	0	0	0	506	478	0	580	39	4	
9	0	0	0	0	511	468	0	578	39	4	
10	0	0	0	0	500	463	0	576	39	4	
11	0	0	0	0	496	457	0	582	39	4	
12	0	0	0	0	502	458	0	578	39	4	
13	0	0	0	0	506	464	0	583	39	4	
14	0	0	0	0	515	467	0	579	39	4	
15	0	0	0	0	502	468	0	576	39	4	
0	0	0	0	0	493	477	0	581	39	4	
1	0	0	0	0	500	484	0	575	39	4	
2	0	0	0	0	496	486	0	581	39	4	
3	0	0	0	0	506	488	0	578	39	4	
4	0	0	0	0	500	485	0	575	39	4	
5	0	0	0	0	496	481	0	580	39	4	
6	0	0	0	0	510	481	0	572	39	4	
7	0	0	0	0	499	483	0	576	39	4	
8	0	0	0	0	512	481	0	575	39	4	
9	0	0	0	0	508	469	0	574	39	4	
10	0	0	0	0	501	461	0	576	39	4	
11	0	0	0	0	500	456	0	568	39	4	
12	0	0	0	0	504	452	0	571	39	4	
13	0	0	0	0	508	446	0	569	39	4	
14	0	0	0	0	507	451	0	565	39	4	
15	0	0	0	0	503	470	0	572	39	4	
0	0	0	0	0	504	486	0	564	39	4	
1	0	0	0	0	505	494	0	545	39	4	
2	0	0	0	0	503	497	0	527	39	4	
3	0	0	0	0	505	492	0	515	39	4	
4	0	0	0	0	502	487	0	504	39	4	
5	0	0	0	0	505	489	0	498	39	4	
6	0	0	0	0	503	492	0	493	39	4	
7	0	0	0	0	502	491	0	489	39	4	
8	0	0	0	0	501	485	0	500	39	4	
9	0	0	0	0	499	473	0	514	39	4	
10	0	0	0	0	503	461	0	518	39	4	
11	0	0	0	0	505	468	0	513	39	4	
12	0	0	0	0	499	473	0	522	39	4	
13	0	0	0	0	504	468	0	518	39	4	
14	0	0	0	0	505	463	0	511	39	4	
15	0	0	0	0	501	464	0	505	39	4	
0	0	0	0	0	509	464	0	499	39	4	
1	0	0	0	0	502	474	0	496	39	4	
2	0	0	0	0	506	485	0	506	39	4	
3	0	0	0	0	496	493	0	528	39	4	
4	0	0	0	0	501	506	0	533	39	4	
5	0	0	0	0	503	515	0	527	39	4	
6	0	0	0	0	506	507	0	518	39	4	
7	0	0	0	0	504	487	0	512	39	4	
8	0	0	0	0	508	463	0	505	39	4	
9	0	0	0	0	496	457	0	503	39	4	
10	0	0	0	0	505	451	0	519	39	4	
11	0	0	0	0	505	462	0	533	39	4	
12	0	0	0	0	507	472	0	531	39	4	
13	0	0	0	0	501	479	0	525	39	4	
14	0	0	0	0	501	495	0	515	39	4	
15	0	0	0	0	504	504	0	507	39	4	
0	0	0	0	0	507	504	0	519	39	4	
1	0	0	0	0	498	504	0	529	39	4	
2	0	0	0	0	494	501	0	528	39	4	
3	0	0	0	0	502	493	0	521	39	4	
4	0	0	0	0	501	498	0	516	39	4	
5	0	0	0	0	498	505	0	508	39	4	
6	0	0	0	0	505	508	0	504	39	4	
7	0	0	0	0	503	510	0	500	39	4	
8	0	0	0	0	502	508	0	503	39	4	
9	0	0	0	0	508	500	0	519	39	4	
10	0	0	0	0	512	494	0	533	39	4	
11	0	0	0	0	505	487	0	531	39	4	
12	0	0	0	0	503	483	0	531	39	4	
13	0	0	0	0	501	475	0	530	39	4	
14	0	0	0	0	504	472	0	525	39	4	
15	0	0	0	0	501	488	0	535	39	4	
0	0	0	0	0	503	491	0	547	39	4	
1	0	0	0	0	505	490	0	544	39	4	
2	0	0	0	0	504	492	0	534	39	4	
3	0	0	0	0	507	497	0	525	39	4	
4	0	0	0	0	503	509	0	511	39	4	
5	0	0	0	0	500	517	0	505	39	4	
6	0	0	0	0	500	523	0	500	39	4	
7	0	0	0	0	500	528	0	499	39	4	
8	0	0	0	0	509	527	0	497	39	4	
9	0	0	0	0	502	520	0	514	39	4	
10	0	0	0	0	507	509	0	536	39	4	
11	0	0	0	0	501	498	0	536	39	4	
12	0	0	0	0	501	489	0	529	39	4	
13	0	0	0	0	510	483	0	521	39	4	
14	0	0	0	0	504	475	0	511	39	4	
15	0	0	0	0	508	477	0	505	39	4	
0	0	0	0	0	496	483	0	492	39	4	
1	0	0	0	0	502	491	0	491	39	4	
2	0	0	0	0	499	491	0	505	39	4	
3	0	0	0	0	501	497	0	519	39	4	
4	0	0	0	0	500	501	0	520	39	4	
5	0	0	0	0	497	508	0	516	39	4	
6	0	0	0	0	503	505	0	510	39	4	
7	0	0	0	0	502	496	0	506	39	4	
8	0	0	0	0	504	490	0	516	39	4	
9	0	0	0	0	503	491	0	540	39	4	
10	0	0	0	0	506	486	0	528	39	4	
11	0	0	0	0	505	483	0	523	38	4	
12	0	0	0	0	502	478	0	525	39	4	
13	0	0	0	0	510	468	0	519	39	4	
14	0	0	0	0	497	467	0	515	39	4	
15	0	0	0	0	505	462	0	509	39	4	
0	0	0	0	0	499	451	0	504	39	4	
1	0	0	0	0	500	452	0	504	39	4	
2	0	0	0	0	505	460	0	516	39	4	
3	0	0	0	0	505	463	0	537	39	4	
4	0	0	0	0	499	476	0	538	39	4	
5	0	0	0	0	502	493	0	531	39	4	
6	0	0	0	0	506	512	0	523	39	4	
7	0	0	0	0	504	516	0	515	39	4	
8	0	0	0	0	505	515	0	512	39	4	
9	0	0	0	0	500	514	0	511	39	4	
10	0	0	0	0	499	519	0	534	39	4	
11	0	0	0	0	506	530	0	541	39	4	
12	0	0	0	0	511	531	0	534	39	4	
13	0	0	0	0	505	515	0	526	39	4	
14	0	0	0	0	505	499	0	516	39	4	
15	0	0	0	0	505	494	0	513	39	4	
0	0	0	0	0	504	487	0	525	39	4	
1	0	0	0	0	508	481	0	534	39	4	
2	0	0	0	0	502	481	0	530	39	4	
3	0	0	0	0	501	483	0	523	39	4	
4	0	0	0	0	502	482	0	515	39	4	
5	0	0	0	0	499	486	0	509	39	4	
6	0	0	0	0	501	495	0	504	39	4	
7	0	0	0	0	508	497	0	501	39	4	
8	0	0	0	0	510	493	0	503	39	4	
9	0	0	0	0	511	500	0	524	39	4	
10	0	0	0	0	510	505	0	529	39	4	
11	0	0	0	0	510	519	0	524	38	4	
12	0	0	0	0	497	522	0	525	39	4	
13	0	0	0	0	501	499	0	524	39	4	
14	0	0	0	0	505	476	0	518	39	4	
15	0	0	0	0	504	468	0	512	39	4	
0	0	0	0	0	501	471	0	503	39	4	
1	0	0	0	0	504	467	0	511	39	4	
2	0	0	0	0	502	474	0	530	39	4	
3	0	0	0	0	503	484	0	532	39	4	
4	0	0	0	0	505	492	0	526	39	4	
5	0	0	0	0	496	499	0	517	39	4	
6	0	0	0	0	504	509	0	516	39	4	
7	0	0	0	0	504	517	0	505	39	4	
8	0	0	0	0	499	519	0	499	39	4	
9	0	0	0	0	500	522	0	496	39	4	
10	0	0	0	0	508	529	0	510	39	4	
11	0	0	0	0	503	531	0	529	39	4	
12	0	0	0	0	504	526	0	528	39	4	
13	0	0	0	0	507	519	0	523	39	4	
14	0	0	0	0	503	507	0	535	39	4	
15	0	0	0	0	501	501	0	539	39	4	
0	0	0	0	0	506	502	0	528	39	4	
1	0	0	0	0	500	504	0	515	39	4	
2	0	0	0	0	499	507	0	506	39	4	
3	0	0	0	0	503	512	0	499	39	4	
4	0	0	0	0	510	513	0	495	39	4	
5	0	0	0	0	505	509	0	496	39	4	
6	0	0	0	0	510	507	0	489	39	4	
7	0	0	0	0	501	508	0	490	39	4	
8	0	0	0	0	504	511	0	488	39	4	
9	0	0	0	0	503	509	0	501	39	4	
10	0	0	0	0	495	506	0	526	39	4	
11	0	0	0	0	504	513	0	526	39	4	
12	0	0	0	0	496	515	0	519	39	4	
13	0	0	0	0	507	512	0	512	39	4	
14	0	0	0	0	506	510	0	520	39	4	
15	0	0	0	0	498	504	0	525	39	4	
0	0	0	0	0	504	495	0	540	39	4	
1	0	0	0	0	503	497	0	535	39	4	
2	0	0	0	0	508	505	0	524	39	4	
3	0	0	0	0	504	512	0	510	39	4	
4	0	0	0	0	496	521	0	504	39	4	
5	0	0	0	0	495	524	0	495	39	4	
6	0	0	0	0	509	528	0	494	39	4	
7	0	0	0	0	504	531	0	487	39	4	
8	0	0	0	0	505	531	0	483	39	4	
9	0	0	0	0	501	532	0	494	39	4	
10	0	0	0	0	497	523	0	516	39	4	
11	0	0	0	0	498	504	0	523	39	4	
12	0	0	0	0	508	496	0	519	39	4	
13	0	0	0	0	508	491	0	511	39	4	
14	0	0	0	0	508	492	0	504	39	4	
15	0	0	0	0	508	488	0	503	39	4	
0	0	0	0	0	502	479	0	519	39	4	
1	0	0	0	0	505	469	0	525	39	4	
2	0	0	0	0	512	469	0	517	39	4	
3	0	0	0	0	494	481	0	510	39	4	
4	0	0	0	0	501	499	0	503	39	4	
5	0	0	0	0	499	512	0	497	39	4	
6	0	0	0	0	506	514	0	489	39	4	
7	0	0	0	0	508	516	0	487	39	4	
8	0	0	0	0	499	524	0	486	39	4	
9	0	0	0	0	501	531	0	477	39	4	
10	0	0	0	0	502	547	0	483	39	4	
11	0	0	0	0	504	555	0	502	38	4	
12	0	0	0	0	504	543	0	519	39	4	
13	0	0	0	0	505	527	0	520	39	4	
14	0	0	0	0	499	522	0	523	39	4	
15	0	0	0	0	506	517	0	539	39	4	
0	0	0	0	0	505	502	0	547	39	4	
1	0	0	0	0	511	502	0	537	39	4	
2	0	0	0	0	505	502	0	525	39	4	
3	0	0	0	0	504	496	0	512	39	4	
4	0	0	0	0	499	494	0	503	39	4	
5	0	0	0	0	504	494	0	497	39	4	
6	0	0	0	0	507	485	0	493	39	4	
7	0	0	0	0	510	476	0	493	39	4	
8	0	0	0	0	504	477	0	495	39	4	
9	0	0	0	0	499	488	0	516	39	4	
10	0	0	0	0	508	498	0	524	39	4	
11	0	0	0	0	510	508	0	520	39	4	
12	0	0	0	0	501	504	0	515	39	4	
13	0	0	0	0	500	493	0	508	39	4	
14	0	0	0	0	501	486	0	504	39	4	
15	0	0	0	0	508	484	0	500	39	4	
0	0	0	0	0	509	483	0	496	39	4	
1	0	0	0	0	509	492	0	506	39	4	
2	0	0	0	0	499	497	0	527	39	4	
3	0	0	0	0	498	491	0	534	39	4	
4	0	0	0	0	507	481	0	527	39	4	
5	0	0	0	0	504	478	0	515	39	4	
6	0	0	0	0	498	486	0	507	39	4	
7	0	0	0	0	500	491	0	497	39	4	
8	0	0	0	0	506	500	0	489	39	4	
9	0	0	0	0	505	513	0	479	39	4	
10	0	0	0	0	506	517	0	475	39	4	
11	0	0	0	0	501	521	0	480	39	4	
12	0	0	0	0	503	525	0	478	39	4	
13	0	0	0	0	500	528	0	482	39	4	
14	0	0	0	0	505	530	0	481	39	4	
15	0	0	0	0	504	524	0	476	39	4	
0	0	0	0	0	504	521	0	476	39	4	
1	0	0	0	0	497	510	0	470	39	4	
2	0	0	0	0	506	495	0	476	39	4	
3	0	0	0	0	504	479	0	476	39	4	
4	0	0	0	0	505	479	0	478	39	4	
5	0	0	0	0	502	483	0	484	39	4	
6	0	0	0	0	509	481	0	484	39	4	
7	0	0	0	0	500	488	0	489	39	4	
8	0	0	0	0	515	499	0	482	39	4	
9	0	0	0	0	504	504	0	476	39	4	
10	0	0	0	0	504	515	0	479	39	4	
11	0	0	0	0	494	525	0	479	39	4	
12	0	0	0	0	502	527	0	486	39	4	
13	0	0	0	0	504	526	0	486	39	4	
14	0	0	0	0	508	523	0	487	39	4	
15	0	0	0	0	501	526	0	489	39	4	
0	0	0	0	0	504	528	0	482	39	4	
1	0	0	0	0	499	526	0	483	39	4	
2	0	0	0	0	514	517	0	481	39	4	
3	0	0	0	0	500	506	0	482	39	4	
4	0	0	0	0	501	506	0	502	39	4	
5	0	0	0	0	495	504	0	531	39	4	
6	0	0	0	0	503	492	0	541	39	4	
7	0	0	0	0	503	484	0	534	39	4	
8	0	0	0	0	506	479	0	523	39	4	
9	0	0	0	0	507	481	0	512	39	4	
10	0	0	0	0	499	498	0	503	39	4	
11	0	0	0	0	500	516	0	501	39	4	
12	0	0	0	0	501	521	0	498	39	4	
13	0	0	0	0	504	518	0	496	39	4	
14	0	0	0	0	499	509	0	498	39	4	
15	0	0	0	0	498	509	0	495	39	4	
0	0	0	0	0	508	514	0	492	39	4	
1	0	0	0	0	515	518	0	487	39	4	
2	0	0	0	0	498	515	0	486	39	4	
3	0	0	0	0	504	509	0	493	39	4	
4	0	0	0	0	498	506	0	493	39	4	
5	0	0	0	0	504	507	0	500	39	4	
6	0	0	0	0	513	501	0	500	39	4	
7	0	0	0	0	501	495	0	497	39	4	
8	0	0	0	0	499	493	0	496	39	4	
9	0	0	0	0	500	498	0	488	39	4	
10	0	0	0	0	503	507	0	492	39	4	
11	0	0	0	0	503	519	0	493	39	4	
12	0	0	0	0	510	532	0	495	39	4	
13	0	0	0	0	508	538	0	513	39	4	
14	0	0	0	0	496	542	0	540	39	4	
15	0	0	0	0	509	556	0	547	39	4	
0	0	0	0	0	505	558	0	543	39	4	
1	0	0	0	0	500	552	0	534	39	4	
2	0	0	0	0	505	562	0	527	39	4	
3	0	0	0	0	505	563	0	519	39	4	
4	0	0	0	0	508	560	0	525	39	4	
5	0	0	0	0	504	565	0	512	39	4	
6	0	0	0	0	505	564	0	505	39	4	
7	0	0	0	0	494	568	0	505	39	4	
8	0	0	0	0	505	577	0	497	39	4	
9	0	0	0	0	500	578	0	494	39	4	
10	0	0	0	0	507	581	0	492	39	4	
11	0	0	0	0	505	591	0	495	39	4	
12	0	0	0	0	506	601	0	501	39	4	
13	0	0	0	0	494	614	0	508	39	4	
14	0	0	0	0	512	619	0	537	39	4	
15	0	0	0	0	502	616	0	551	39	4	
0	0	0	0	0	503	605	0	564	39	4	
1	0	0	0	0	502	610	0	574	39	4	
2	0	0	0	0	508	619	0	571	39	4	
3	0	0	0	0	503	625	0	582	39	4	
4	0	0	0	0	507	615	0	580	39	4	
5	0	0	0	0	508	599	0	564	39	4	
6	0	0	0	0	511	583	0	547	39	4	
7	0	0	0	0	510	561	0	538	39	4	
8	0	0	0	0	498	543	0	559	39	4	
9	0	0	0	0	500	528	0	553	39	4	
10	0	0	0	0	504	515	0	559	39	4	
11	0	0	0	0	509	499	0	567	39	4	
12	0	0	0	0	500	491	0	564	39	4	
13	0	0	0	0	501	489	0	574	39	4	
14	0	0	0	0	502	489	0	573	39	4	
15	0	0	0	0	501	481	0	575	39	4	
0	0	0	0	0	505	468	0	574	39	4	
1	0	0	0	0	508	448	0	561	39	4	
2	0	0	0	0	504	426	0	568	39	4	
3	0	0	0	0	512	415	0	566	39	4	
4	0	0	0	0	503	402	0	571	39	4	
5	0	0	0	0	504	383	0	573	39	4	
6	0	0	0	0	499	369	0	559	39	4	
7	0	0	0	0	504	355	0	542	39	4	
8	0	0	0	0	504	343	0	524	39	4	
9	0	0	0	0	507	339	0	507	39	4	
10	0	0	0	0	496	345	0	499	39	4	
11	0	0	0	0	502	358	0	489	39	4	
12	0	0	0	0	505	353	0	490	39	4	
13	0	0	0	0	504	344	0	484	39	4	
14	0	0	0	0	498	332	0	491	39	4	
15	0	0	0	0	494	321	0	482	39	4	
0	0	0	0	0	499	324	0	472	39	4	
1	0	0	0	0	504	332	0	470	39	4	
2	0	0	0	0	508	343	0	466	39	4	
3	0	0	0	0	508	350	0	469	39	4	
4	0	0	0	0	496	357	0	473	39	4	
5	0	0	0	0	504	349	0	472	39	4	
6	0	0	0	0	504	337	0	479	39	4	
7	0	0	0	0	504	339	0	477	39	4	
8	0	0	0	0	509	346	0	478	39	4	
9	0	0	0	0	501	351	0	480	39	4	
10	0	0	0	0	499	354	0	476	39	4	
11	0	0	0	0	503	364	0	482	39	4	
12	0	0	0	0	507	372	0	480	39	4	
13	0	0	0	0	504	391	0	500	39	4	
14	0	0	0	0	500	410	0	518	39	4	
15	0	0	0	0	498	426	0	516	39	4	
0	0	0	0	0	508	444	0	508	39	4	
1	0	0	0	0	506	451	0	493	39	4	
2	0	0	0	0	505	455	0	486	39	4	
3	0	0	0	0	509	468	0	483	39	4	
4	0	0	0	0	504	478	0	479	39	4	
5	0	0	0	0	500	481	0	483	39	4	
6	0	0	0	0	503	477	0	478	39	4	
7	0	0	0	0	504	472	0	476	39	4	
8	0	0	0	0	502	477	0	475	39	4	
9	0	0	0	0	498	481	0	472	39	4	
10	0	0	0	0	501	491	0	475	39	4	
11	0	0	0	0	507	504	0	473	39	4	
12	0	0	0	0	509	513	0	475	39	4	
13	0	0	0	0	507	513	0	478	39	4	
14	0	0	0	0	496	518	0	478	39	4	
15	0	0	0	0	501	522	0	481	39	4	
0	0	0	0	0	507	527	0	477	39	4	
1	0	0	0	0	502	529	0	474	39	4	
2	0	0	0	0	513	539	0	480	39	4	
3	0	0	0	0	494	545	0	479	39	4	
4	0	0	0	0	508	537	0	483	39	4	
5	0	0	0	0	503	534	0	484	39	4	
6	0	0	0	0	499	540	0	503	39	4	
7	0	0	0	0	500	545	0	527	39	4	
8	0	0	0	0	511	551	0	534	39	4	
9	0	0	0	0	497	569	0	551	39	4	
10	0	0	0	0	503	579	0	553	39	4	
11	0	0	0	0	508	572	0	559	39	4	
12	0	0	0	0	501	563	0	571	39	4	
13	0	0	0	0	504	560	0	567	39	4	
14	0	0	0	0	504	561	0	576	39	4	
15	0	0	0	0	497	572	0	568	39	4	
0	0	0	0	0	504	579	0	568	39	4	
1	0	0	0	0	514	587	0	569	39	4	
2	0	0	0	0	506	596	0	561	39	4	
3	0	0	0	0	507	609	0	570	39	4	
4	0	0	0	0	508	611	0	567	39	4	
5	0	0	0	0	503	609	0	569	39	4	
6	0	0	0	0	501	611	0	572	39	4	
7	0	0	0	0	505	603	0	562	39	4	
8	0	0	0	0	505	591	0	567	39	4	
9	0	0	0	0	509	579	0	562	39	4	
10	0	0	0	0	502	566	0	562	39	4	
11	0	0	0	0	499	558	0	567	39	4	
12	0	0	0	0	500	554	0	555	39	4	
13	0	0	0	0	497	564	0	540	39	4	
14	0	0	0	0	507	583	0	534	39	4	
15	0	0	0	0	507	596	0	520	39	4	
0	0	0	0	0	509	599	0	523	39	4	
1	0	0	0	0	499	595	0	537	39	4	
2	0	0	0	0	492	590	0	535	39	4	
3	0	0	0	0	503	588	0	524	39	4	
4	0	0	0	0	507	587	0	512	39	4	
5	0	0	0	0	503	586	0	506	39	4	
6	0	0	0	0	502	583	0	498	39	4	
7	0	0	0	0	504	584	0	494	39	4	
8	0	0	0	0	505	579	0	489	39	4	
9	0	0	0	0	510	573	0	503	39	4	
10	0	0	0	0	503	568	0	521	39	4	
11	0	0	0	0	505	565	0	523	39	4	
12	0	0	0	0	495	571	0	521	39	4	
13	0	0	0	0	499	580	0	513	39	4	
14	0	0	0	0	504	590	0	504	39	4	
15	0	0	0	0	506	598	0	512	39	4	
0	0	0	0	0	494	600	0	526	39	4	
1	0	0	0	0	500	598	0	526	39	4	
2	0	0	0	0	505	603	0	517	39	4	
3	0	0	0	0	511	607	0	506	39	4	
4	0	0	0	0	511	614	0	502	39	4	
5	0	0	0	0	506	621	0	495	39	4	
6	0	0	0	0	506	619	0	495	39	4	
7	0	0	0	0	505	615	0	494	39	4	
8	0	0	0	0	501	606	0	509	39	4	
9	0	0	0	0	501	592	0	528	39	4	
10	0	0	0	0	507	578	0	529	39	4	
11	0	0	0	0	506	574	0	527	38	4	
12	0	0	0	0	506	561	0	528	39	4	
13	0	0	0	0	508	556	0	520	39	4	
14	0	0	0	0	500	562	0	514	39	4	
15	0	0	0	0	501	572	0	507	39	4	
0	0	0	0	0	498	582	0	503	39	4	
1	0	0	0	0	499	581	0	498	39	4	
2	0	0	0	0	507	588	0	495	39	4	
3	0	0	0	0	503	598	0	504	39	4	
4	0	0	0	0	495	604	0	524	39	4	
5	0	0	0	0	499	609	0	530	39	4	
6	0	0	0	0	508	611	0	524	39	4	
7	0	0	0	0	513	600	0	514	39	4	
8	0	0	0	0	499	601	0	508	39	4	
9	0	0	0	0	506	590	0	506	39	4	
10	0	0	0	0	499	575	0	526	39	4	
11	0	0	0	0	507	563	0	529	39	4	
12	0	0	0	0	511	566	0	523	39	4	
13	0	0	0	0	496	575	0	516	39	4	
14	0	0	0	0	509	578	0	506	39	4	
15	0	0	0	0	505	573	0	504	39	4	
0	0	0	0	0	501	561	0	527	39	4	
1	0	0	0	0	504	549	0	526	39	4	
2	0	0	0	0	503	564	0	520	39	4	
3	0	0	0	0	507	584	0	512	38	4	
4	0	0	0	0	499	602	0	504	39	4	
5	0	0	0	0	506	612	0	498	39	4	
6	0	0	0	0	499	618	0	494	39	4	
7	0	0	0	0	502	630	0	494	39	4	
8	0	0	0	0	505	634	0	492	39	4	
