# OpenSignals Text File Format. Version 1
# {"98:D3:41:FD:4F:0D": {"position": 0, "device": "bitalino_rev", "device name": "98:D3:41:FD:4F:0D", "device connection": "BTH98:D3:41:FD:4F:0D", "sampling rate": 1000, "resolution": [4, 1, 1, 1, 1, 10, 10, 10, 10, 6, 6], "firmware version": 1282, "comments": "", "keywords": "", "mode": 0, "sync interval": 2, "date": "2024-4-19", "time": "10:47:48.317", "channels": [1, 2, 3, 4, 5, 6], "sensor": ["RAW", "ECGBIT", "RAW", "RAW", "RAW", "RAW"], "label": ["A1", "A2", "A3", "A4", "A5", "A6"], "column": ["nSeq", "I1", "I2", "O1", "O2", "A1", "A2", "A3", "A4", "A5", "A6"], "special": [{}, {}, {}, {}, {}, {}], "digital IO": [0, 0, 1, 1], "convertedValues": 0}}
# EndOfHeader
0	0	0	0	0	509	504	0	529	39	8	
1	0	0	0	0	507	498	0	530	39	8	
2	0	0	0	0	504	497	0	528	39	8	
3	0	0	0	0	501	494	0	527	39	8	
4	0	0	0	0	505	492	0	527	39	9	
5	0	0	0	0	499	496	0	526	39	8	
6	0	0	0	0	499	509	0	526	39	8	
7	0	0	0	0	499	519	0	524	39	8	
8	0	0	0	0	502	516	0	519	39	8	
9	0	0	0	0	500	513	0	515	39	8	
10	0	0	0	0	502	513	0	512	39	8	
11	0	0	0	0	505	512	0	515	39	8	
12	0	0	0	0	504	513	0	516	39	8	
13	0	0	0	0	508	514	0	516	39	8	
14	0	0	0	0	504	518	0	516	39	8	
15	0	0	0	0	499	519	0	516	39	8	
0	0	0	0	0	502	513	0	516	39	8	
1	0	0	0	0	508	504	0	512	39	8	
2	0	0	0	0	506	492	0	513	39	8	
3	0	0	0	0	502	489	0	519	39	8	
4	0	0	0	0	514	493	0	528	39	8	
5	0	0	0	0	502	489	0	545	39	9	
6	0	0	0	0	495	488	0	549	39	8	
7	0	0	0	0	507	486	0	546	39	8	
8	0	0	0	0	503	484	0	541	39	8	
9	0	0	0	0	497	487	0	532	39	8	
10	0	0	0	0	498	487	0	529	39	8	
11	0	0	0	0	499	488	0	527	39	8	
12	0	0	0	0	506	491	0	527	39	8	
13	0	0	0	0	503	493	0	529	39	8	
14	0	0	0	0	505	492	0	529	39	8	
15	0	0	0	0	503	496	0	530	39	8	
0	0	0	0	0	506	495	0	526	39	8	
1	0	0	0	0	504	493	0	543	39	8	
2	0	0	0	0	507	493	0	561	39	8	
3	0	0	0	0	508	497	0	570	39	8	
4	0	0	0	0	497	496	0	591	39	8	
5	0	0	0	0	503	495	0	592	39	8	
6	0	0	0	0	502	482	0	577	39	8	
7	0	0	0	0	502	476	0	572	39	8	
8	0	0	0	0	503	483	0	579	39	8	
9	0	0	0	0	503	488	0	574	39	8	
10	0	0	0	0	509	492	0	583	39	8	
11	0	0	0	0	507	487	0	588	39	8	
12	0	0	0	0	505	476	0	590	39	8	
13	0	0	0	0	498	478	0	599	39	8	
14	0	0	0	0	507	483	0	592	39	9	
15	0	0	0	0	503	486	0	599	39	8	
0	0	0	0	0	503	485	0	599	39	8	
1	0	0	0	0	501	483	0	583	39	8	
2	0	0	0	0	504	486	0	568	39	8	
3	0	0	0	0	504	480	0	552	39	8	
4	0	0	0	0	511	482	0	541	39	8	
5	0	0	0	0	501	486	0	531	38	8	
6	0	0	0	0	500	489	0	527	39	8	
7	0	0	0	0	503	493	0	523	39	8	
8	0	0	0	0	501	492	0	525	39	8	
9	0	0	0	0	503	486	0	544	39	8	
10	0	0	0	0	509	481	0	554	39	8	
11	0	0	0	0	507	486	0	551	39	8	
12	0	0	0	0	496	494	0	545	39	8	
13	0	0	0	0	510	502	0	536	39	8	
14	0	0	0	0	497	497	0	529	39	8	
15	0	0	0	0	508	487	0	522	39	8	
0	0	0	0	0	503	485	0	530	39	8	
1	0	0	0	0	504	486	0	544	39	8	
2	0	0	0	0	504	488	0	544	39	8	
3	0	0	0	0	512	487	0	540	39	8	
4	0	0	0	0	507	491	0	541	39	8	
5	0	0	0	0	501	497	0	536	38	8	
6	0	0	0	0	504	496	0	531	39	8	
7	0	0	0	0	504	496	0	526	39	9	
8	0	0	0	0	499	496	0	521	39	8	
9	0	0	0	0	510	502	0	516	39	8	
10	0	0	0	0	506	503	0	526	39	8	
11	0	0	0	0	503	497	0	549	39	8	
12	0	0	0	0	502	498	0	556	39	8	
13	0	0	0	0	504	498	0	550	39	8	
14	0	0	0	0	499	499	0	542	39	8	
15	0	0	0	0	506	497	0	534	39	8	
0	0	0	0	0	503	503	0	526	39	8	
1	0	0	0	0	504	507	0	523	39	8	
2	0	0	0	0	500	496	0	542	39	8	
3	0	0	0	0	499	479	0	552	39	8	
4	0	0	0	0	505	470	0	548	39	8	
5	0	0	0	0	511	489	0	540	39	8	
6	0	0	0	0	505	494	0	531	39	8	
7	0	0	0	0	496	493	0	527	39	8	
8	0	0	0	0	500	491	0	539	39	8	
9	0	0	0	0	503	490	0	553	39	8	
10	0	0	0	0	503	497	0	553	39	8	
11	0	0	0	0	504	500	0	546	39	8	
12	0	0	0	0	497	497	0	538	39	8	
13	0	0	0	0	496	497	0	528	39	8	
14	0	0	0	0	505	503	0	523	39	8	
15	0	0	0	0	507	502	0	518	39	8	
0	0	0	0	0	507	501	0	518	39	9	
1	0	0	0	0	499	499	0	537	39	8	
2	0	0	0	0	510	511	0	550	39	8	
3	0	0	0	0	504	521	0	550	39	8	
4	0	0	0	0	502	524	0	549	39	8	
5	0	0	0	0	512	534	0	548	39	8	
6	0	0	0	0	504	546	0	544	39	8	
7	0	0	0	0	503	554	0	554	39	8	
8	0	0	0	0	497	572	0	565	39	8	
9	0	0	0	0	498	586	0	561	39	8	
10	0	0	0	0	498	592	0	551	39	8	
11	0	0	0	0	502	593	0	540	39	8	
12	0	0	0	0	504	600	0	530	39	8	
13	0	0	0	0	503	603	0	526	39	8	
14	0	0	0	0	509	609	0	520	39	8	
15	0	0	0	0	504	618	0	516	39	8	
0	0	0	0	0	506	625	0	515	39	8	
1	0	0	0	0	504	628	0	531	39	8	
2	0	0	0	0	504	621	0	555	39	8	
3	0	0	0	0	499	615	0	554	39	8	
4	0	0	0	0	504	609	0	547	39	8	
5	0	0	0	0	509	584	0	536	39	8	
6	0	0	0	0	510	551	0	527	39	8	
7	0	0	0	0	502	534	0	531	39	8	
8	0	0	0	0	499	529	0	543	39	8	
9	0	0	0	0	505	511	0	540	39	9	
10	0	0	0	0	501	492	0	531	39	8	
11	0	0	0	0	505	474	0	524	39	8	
12	0	0	0	0	500	460	0	520	39	8	
13	0	0	0	0	497	442	0	517	39	8	
14	0	0	0	0	498	425	0	517	39	8	
15	0	0	0	0	503	418	0	515	39	8	
0	0	0	0	0	510	407	0	513	39	8	
1	0	0	0	0	507	386	0	526	39	8	
2	0	0	0	0	503	368	0	550	39	8	
3	0	0	0	0	502	352	0	558	39	8	
4	0	0	0	0	501	336	0	552	39	8	
5	0	0	0	0	502	328	0	553	39	8	
6	0	0	0	0	507	324	0	547	39	8	
7	0	0	0	0	507	322	0	545	39	8	
8	0	0	0	0	502	323	0	562	39	8	
9	0	0	0	0	503	333	0	561	39	8	
10	0	0	0	0	503	338	0	551	39	8	
11	0	0	0	0	499	344	0	540	39	8	
12	0	0	0	0	503	348	0	528	39	8	
13	0	0	0	0	498	358	0	523	39	8	
14	0	0	0	0	500	363	0	516	39	8	
15	0	0	0	0	507	364	0	513	39	8	
0	0	0	0	0	509	366	0	514	39	8	
1	0	0	0	0	511	378	0	519	39	8	
2	0	0	0	0	494	390	0	546	39	9	
3	0	0	0	0	500	395	0	555	39	8	
4	0	0	0	0	497	390	0	551	39	8	
5	0	0	0	0	500	383	0	543	39	8	
6	0	0	0	0	504	380	0	536	39	8	
7	0	0	0	0	510	384	0	535	39	8	
8	0	0	0	0	508	394	0	549	39	8	
9	0	0	0	0	510	419	0	557	39	8	
10	0	0	0	0	502	430	0	571	39	8	
11	0	0	0	0	500	425	0	545	39	8	
12	0	0	0	0	505	430	0	537	39	8	
13	0	0	0	0	503	432	0	530	39	8	
14	0	0	0	0	513	438	0	524	39	8	
15	0	0	0	0	498	456	0	521	39	8	
0	0	0	0	0	508	470	0	526	39	8	
1	0	0	0	0	502	474	0	546	39	8	
2	0	0	0	0	505	480	0	553	39	8	
3	0	0	0	0	508	494	0	548	39	8	
4	0	0	0	0	506	508	0	550	39	8	
5	0	0	0	0	503	522	0	548	39	8	
6	0	0	0	0	496	531	0	542	39	8	
7	0	0	0	0	509	537	0	534	39	8	
8	0	0	0	0	506	536	0	527	39	8	
9	0	0	0	0	510	536	0	538	39	8	
10	0	0	0	0	502	527	0	559	39	8	
11	0	0	0	0	494	515	0	563	39	9	
12	0	0	0	0	504	517	0	556	39	8	
13	0	0	0	0	504	525	0	544	39	8	
14	0	0	0	0	500	533	0	536	39	8	
15	0	0	0	0	502	543	0	529	39	8	
0	0	0	0	0	508	555	0	526	39	8	
1	0	0	0	0	500	565	0	519	39	8	
2	0	0	0	0	505	572	0	513	39	8	
3	0	0	0	0	508	579	0	512	39	9	
4	0	0	0	0	501	574	0	510	39	8	
5	0	0	0	0	503	570	0	509	39	8	
6	0	0	0	0	500	558	0	511	39	8	
7	0	0	0	0	505	551	0	529	39	8	
8	0	0	0	0	508	543	0	551	39	8	
9	0	0	0	0	515	537	0	561	39	8	
10	0	0	0	0	504	539	0	579	39	8	
11	0	0	0	0	501	535	0	579	39	8	
12	0	0	0	0	504	532	0	565	39	8	
13	0	0	0	0	506	539	0	549	39	8	
14	0	0	0	0	501	548	0	534	39	8	
15	0	0	0	0	499	551	0	523	39	8	
0	0	0	0	0	498	561	0	515	39	8	
1	0	0	0	0	502	568	0	511	39	8	
2	0	0	0	0	501	568	0	520	39	8	
3	0	0	0	0	501	565	0	543	39	8	
4	0	0	0	0	504	562	0	548	39	9	
5	0	0	0	0	508	556	0	541	39	8	
6	0	0	0	0	510	549	0	529	39	8	
7	0	0	0	0	504	546	0	531	39	8	
8	0	0	0	0	503	546	0	543	39	8	
9	0	0	0	0	509	547	0	543	39	8	
10	0	0	0	0	502	544	0	557	39	8	
11	0	0	0	0	498	543	0	561	39	8	
12	0	0	0	0	497	543	0	551	39	8	
13	0	0	0	0	505	547	0	556	39	8	
14	0	0	0	0	505	557	0	542	39	8	
15	0	0	0	0	505	560	0	533	39	8	
0	0	0	0	0	511	558	0	542	39	8	
1	0	0	0	0	504	553	0	554	39	8	
2	0	0	0	0	499	547	0	550	39	8	
3	0	0	0	0	498	543	0	537	39	8	
4	0	0	0	0	507	547	0	526	39	8	
5	0	0	0	0	508	551	0	515	39	8	
6	0	0	0	0	508	552	0	510	39	8	
7	0	0	0	0	502	558	0	505	39	8	
8	0	0	0	0	495	560	0	504	39	8	
9	0	0	0	0	502	552	0	504	39	8	
10	0	0	0	0	507	548	0	520	39	8	
11	0	0	0	0	501	547	0	536	39	8	
12	0	0	0	0	502	559	0	538	39	8	
13	0	0	0	0	504	551	0	536	39	9	
14	0	0	0	0	506	539	0	550	39	8	
15	0	0	0	0	507	540	0	550	39	8	
0	0	0	0	0	504	547	0	540	39	8	
1	0	0	0	0	499	551	0	527	39	8	
2	0	0	0	0	499	559	0	518	39	8	
3	0	0	0	0	501	563	0	511	39	8	
4	0	0	0	0	511	563	0	504	39	8	
5	0	0	0	0	503	549	0	501	39	8	
6	0	0	0	0	499	540	0	499	39	8	
7	0	0	0	0	504	548	0	499	39	8	
8	0	0	0	0	502	548	0	497	39	8	
9	0	0	0	0	505	547	0	511	39	8	
10	0	0	0	0	504	547	0	532	39	8	
11	0	0	0	0	505	537	0	536	39	8	
12	0	0	0	0	499	529	0	533	39	8	
13	0	0	0	0	500	527	0	536	39	8	
14	0	0	0	0	505	531	0	528	39	8	
15	0	0	0	0	506	539	0	535	39	8	
0	0	0	0	0	509	551	0	549	39	8	
1	0	0	0	0	501	560	0	546	39	8	
2	0	0	0	0	499	565	0	537	39	8	
3	0	0	0	0	500	572	0	525	39	8	
4	0	0	0	0	509	580	0	518	39	8	
5	0	0	0	0	504	588	0	510	39	8	
6	0	0	0	0	510	595	0	506	39	9	
7	0	0	0	0	511	593	0	507	39	8	
8	0	0	0	0	501	585	0	505	39	8	
9	0	0	0	0	498	571	0	518	39	8	
10	0	0	0	0	493	565	0	539	39	8	
11	0	0	0	0	510	563	0	543	39	8	
12	0	0	0	0	502	564	0	538	39	8	
13	0	0	0	0	509	560	0	528	39	8	
14	0	0	0	0	498	560	0	521	39	8	
15	0	0	0	0	505	559	0	519	39	8	
0	0	0	0	0	485	561	0	532	39	8	
1	0	0	0	0	500	563	0	532	39	8	
2	0	0	0	0	514	564	0	524	39	8	
3	0	0	0	0	495	569	0	535	39	8	
4	0	0	0	0	504	576	0	510	39	8	
5	0	0	0	0	503	582	0	504	39	8	
6	0	0	0	0	509	587	0	502	39	8	
7	0	0	0	0	510	588	0	499	39	8	
8	0	0	0	0	510	583	0	510	39	8	
9	0	0	0	0	501	580	0	524	39	8	
10	0	0	0	0	504	576	0	525	39	8	
11	0	0	0	0	504	575	0	522	39	8	
12	0	0	0	0	505	570	0	525	39	8	
13	0	0	0	0	499	567	0	522	39	8	
14	0	0	0	0	496	565	0	514	39	8	
15	0	0	0	0	506	571	0	510	39	9	
0	0	0	0	0	502	574	0	505	39	8	
1	0	0	0	0	508	577	0	503	39	8	
2	0	0	0	0	503	587	0	515	39	8	
3	0	0	0	0	507	595	0	537	39	8	
4	0	0	0	0	502	601	0	542	39	8	
5	0	0	0	0	507	603	0	537	39	8	
6	0	0	0	0	501	604	0	546	39	8	
7	0	0	0	0	502	606	0	553	39	8	
8	0	0	0	0	500	608	0	544	39	8	
9	0	0	0	0	506	606	0	531	39	8	
10	0	0	0	0	509	603	0	539	39	8	
11	0	0	0	0	500	601	0	541	39	8	
12	0	0	0	0	511	599	0	532	39	8	
13	0	0	0	0	504	599	0	523	39	8	
14	0	0	0	0	507	604	0	515	39	8	
15	0	0	0	0	506	604	0	509	39	8	
0	0	0	0	0	499	600	0	519	39	8	
1	0	0	0	0	499	598	0	531	39	8	
2	0	0	0	0	502	592	0	532	39	8	
3	0	0	0	0	503	587	0	526	39	8	
4	0	0	0	0	503	586	0	519	39	8	
5	0	0	0	0	499	592	0	511	39	8	
6	0	0	0	0	509	594	0	508	39	8	
7	0	0	0	0	502	591	0	506	39	8	
8	0	0	0	0	507	588	0	506	39	9	
9	0	0	0	0	497	595	0	505	39	8	
10	0	0	0	0	494	583	0	523	39	8	
11	0	0	0	0	502	575	0	540	39	8	
12	0	0	0	0	508	579	0	541	39	8	
13	0	0	0	0	503	583	0	533	39	8	
14	0	0	0	0	506	587	0	526	39	8	
15	0	0	0	0	502	595	0	536	39	8	
0	0	0	0	0	497	605	0	548	39	8	
1	0	0	0	0	499	611	0	546	39	8	
2	0	0	0	0	504	608	0	539	39	8	
3	0	0	0	0	511	587	0	531	39	8	
4	0	0	0	0	501	573	0	521	39	8	
5	0	0	0	0	506	580	0	514	39	8	
6	0	0	0	0	507	582	0	511	39	8	
7	0	0	0	0	504	581	0	510	39	8	
8	0	0	0	0	509	578	0	509	39	8	
9	0	0	0	0	504	571	0	525	39	8	
10	0	0	0	0	505	564	0	551	39	8	
11	0	0	0	0	502	560	0	547	39	8	
12	0	0	0	0	503	561	0	541	39	8	
13	0	0	0	0	504	560	0	531	39	8	
14	0	0	0	0	511	552	0	520	39	8	
15	0	0	0	0	505	550	0	526	39	8	
0	0	0	0	0	498	557	0	536	39	8	
1	0	0	0	0	496	563	0	531	39	9	
2	0	0	0	0	506	555	0	521	39	8	
3	0	0	0	0	504	539	0	510	39	8	
4	0	0	0	0	504	530	0	506	39	8	
5	0	0	0	0	496	531	0	499	39	8	
6	0	0	0	0	506	531	0	499	39	8	
7	0	0	0	0	496	530	0	494	39	8	
8	0	0	0	0	510	527	0	491	39	8	
9	0	0	0	0	509	530	0	488	39	8	
10	0	0	0	0	506	528	0	486	39	8	
11	0	0	0	0	509	528	0	491	39	8	
12	0	0	0	0	502	537	0	492	39	8	
13	0	0	0	0	499	530	0	492	39	8	
14	0	0	0	0	505	515	0	495	39	8	
15	0	0	0	0	508	507	0	492	39	8	
0	0	0	0	0	500	508	0	491	39	8	
1	0	0	0	0	500	506	0	484	39	8	
2	0	0	0	0	508	497	0	483	39	8	
3	0	0	0	0	494	488	0	487	39	8	
4	0	0	0	0	501	482	0	500	39	8	
5	0	0	0	0	500	478	0	492	39	8	
6	0	0	0	0	502	472	0	492	39	8	
7	0	0	0	0	506	472	0	489	39	8	
8	0	0	0	0	504	469	0	487	39	8	
9	0	0	0	0	504	467	0	491	39	8	
10	0	0	0	0	514	469	0	520	39	9	
11	0	0	0	0	509	470	0	535	39	8	
12	0	0	0	0	501	466	0	531	39	8	
13	0	0	0	0	504	463	0	523	38	8	
14	0	0	0	0	507	461	0	512	39	8	
15	0	0	0	0	508	457	0	506	39	8	
0	0	0	0	0	507	451	0	495	39	8	
1	0	0	0	0	507	448	0	487	39	8	
2	0	0	0	0	503	446	0	484	39	8	
3	0	0	0	0	490	447	0	483	39	8	
4	0	0	0	0	501	447	0	485	39	8	
5	0	0	0	0	511	449	0	484	39	8	
6	0	0	0	0	505	448	0	483	39	8	
7	0	0	0	0	499	452	0	482	39	8	
8	0	0	0	0	498	452	0	478	39	8	
9	0	0	0	0	504	452	0	476	39	8	
10	0	0	0	0	504	449	0	475	39	8	
11	0	0	0	0	504	458	0	475	39	8	
12	0	0	0	0	504	467	0	479	39	8	
13	0	0	0	0	510	467	0	480	39	8	
14	0	0	0	0	502	459	0	485	39	8	
15	0	0	0	0	505	445	0	483	39	8	
0	0	0	0	0	512	439	0	480	39	8	
1	0	0	0	0	511	440	0	478	39	8	
2	0	0	0	0	497	440	0	486	39	8	
3	0	0	0	0	499	437	0	513	39	9	
4	0	0	0	0	500	429	0	524	39	8	
5	0	0	0	0	501	423	0	519	39	8	
6	0	0	0	0	508	428	0	513	39	8	
7	0	0	0	0	504	437	0	504	39	8	
8	0	0	0	0	496	442	0	499	39	8	
9	0	0	0	0	505	443	0	491	39	8	
10	0	0	0	0	505	442	0	485	39	8	
11	0	0	0	0	504	439	0	485	39	8	
12	0	0	0	0	505	434	0	484	39	8	
13	0	0	0	0	500	427	0	486	39	8	
14	0	0	0	0	511	428	0	486	39	8	
15	0	0	0	0	507	437	0	482	39	8	
0	0	0	0	0	511	450	0	480	39	8	
1	0	0	0	0	503	471	0	476	39	8	
2	0	0	0	0	499	484	0	478	39	8	
3	0	0	0	0	506	487	0	479	39	8	
4	0	0	0	0	504	478	0	480	39	8	
5	0	0	0	0	500	452	0	485	39	8	
6	0	0	0	0	503	433	0	484	39	8	
7	0	0	0	0	497	437	0	490	39	8	
8	0	0	0	0	509	448	0	496	39	8	
9	0	0	0	0	504	448	0	482	39	8	
10	0	0	0	0	496	451	0	484	39	8	
11	0	0	0	0	503	458	0	484	39	8	
12	0	0	0	0	503	457	0	491	39	9	
13	0	0	0	0	511	452	0	529	38	8	
14	0	0	0	0	504	452	0	533	39	8	
15	0	0	0	0	507	457	0	533	39	8	
0	0	0	0	0	497	462	0	525	39	8	
1	0	0	0	0	516	465	0	518	39	8	
2	0	0	0	0	504	464	0	510	39	8	
3	0	0	0	0	503	458	0	502	39	8	
4	0	0	0	0	499	455	0	500	39	8	
5	0	0	0	0	498	457	0	495	39	8	
6	0	0	0	0	501	462	0	494	39	8	
7	0	0	0	0	507	466	0	491	39	8	
8	0	0	0	0	507	465	0	486	39	8	
9	0	0	0	0	499	467	0	503	39	8	
10	0	0	0	0	501	466	0	484	39	8	
11	0	0	0	0	507	464	0	489	39	8	
12	0	0	0	0	494	461	0	487	39	8	
13	0	0	0	0	514	459	0	487	39	8	
14	0	0	0	0	503	457	0	491	39	8	
15	0	0	0	0	500	461	0	497	39	8	
0	0	0	0	0	502	464	0	524	39	8	
1	0	0	0	0	504	463	0	535	39	8	
2	0	0	0	0	511	460	0	551	39	8	
3	0	0	0	0	499	463	0	562	39	8	
4	0	0	0	0	508	467	0	562	39	8	
5	0	0	0	0	502	460	0	575	39	9	
6	0	0	0	0	503	454	0	575	39	8	
7	0	0	0	0	500	460	0	576	39	8	
8	0	0	0	0	502	471	0	574	39	8	
9	0	0	0	0	508	473	0	563	39	8	
10	0	0	0	0	505	467	0	569	39	8	
11	0	0	0	0	499	467	0	563	39	8	
12	0	0	0	0	504	472	0	566	39	8	
13	0	0	0	0	503	476	0	572	39	8	
14	0	0	0	0	505	476	0	568	39	8	
15	0	0	0	0	504	475	0	575	39	8	
0	0	0	0	0	503	473	0	569	39	8	
1	0	0	0	0	506	475	0	571	39	8	
2	0	0	0	0	504	473	0	576	39	8	
3	0	0	0	0	509	474	0	573	39	8	
4	0	0	0	0	505	476	0	581	39	8	
5	0	0	0	0	503	474	0	575	39	8	
6	0	0	0	0	499	475	0	576	39	8	
7	0	0	0	0	496	477	0	577	39	8	
8	0	0	0	0	498	477	0	572	39	8	
9	0	0	0	0	508	473	0	582	39	8	
10	0	0	0	0	503	471	0	579	39	8	
11	0	0	0	0	503	474	0	581	39	8	
12	0	0	0	0	496	477	0	580	39	8	
13	0	0	0	0	509	475	0	574	39	8	
14	0	0	0	0	506	470	0	567	39	9	
15	0	0	0	0	503	469	0	590	39	8	
0	0	0	0	0	505	473	0	571	39	8	
1	0	0	0	0	504	477	0	556	39	8	
2	0	0	0	0	507	474	0	539	39	8	
3	0	0	0	0	505	465	0	523	39	8	
4	0	0	0	0	499	472	0	513	39	8	
5	0	0	0	0	501	479	0	504	39	8	
6	0	0	0	0	503	484	0	504	39	8	
7	0	0	0	0	500	491	0	500	39	8	
8	0	0	0	0	502	494	0	499	39	8	
9	0	0	0	0	505	496	0	499	39	8	
10	0	0	0	0	508	497	0	499	39	8	
11	0	0	0	0	500	496	0	513	39	8	
12	0	0	0	0	504	493	0	535	39	8	
13	0	0	0	0	503	497	0	542	39	8	
14	0	0	0	0	502	502	0	558	39	8	
15	0	0	0	0	509	509	0	558	39	8	
0	0	0	0	0	510	511	0	546	39	8	
1	0	0	0	0	499	501	0	537	39	8	
2	0	0	0	0	502	491	0	533	39	8	
3	0	0	0	0	503	487	0	523	39	8	
4	0	0	0	0	503	483	0	512	39	8	
5	0	0	0	0	515	480	0	507	38	8	
6	0	0	0	0	502	488	0	502	39	8	
7	0	0	0	0	499	491	0	500	39	9	
8	0	0	0	0	494	494	0	498	39	8	
9	0	0	0	0	504	492	0	498	39	8	
10	0	0	0	0	502	500	0	499	39	8	
11	0	0	0	0	497	504	0	497	39	8	
12	0	0	0	0	499	502	0	504	39	8	
13	0	0	0	0	498	499	0	523	39	8	
14	0	0	0	0	509	495	0	536	39	8	
15	0	0	0	0	507	496	0	546	39	8	
0	0	0	0	0	509	503	0	560	39	8	
1	0	0	0	0	503	499	0	551	39	8	
2	0	0	0	0	508	496	0	536	39	8	
3	0	0	0	0	504	496	0	525	39	8	
4	0	0	0	0	508	496	0	512	39	8	
5	0	0	0	0	505	497	0	502	39	8	
6	0	0	0	0	504	499	0	499	39	8	
7	0	0	0	0	504	499	0	495	39	8	
8	0	0	0	0	505	498	0	492	39	8	
9	0	0	0	0	504	491	0	505	39	8	
10	0	0	0	0	497	483	0	528	39	8	
11	0	0	0	0	499	478	0	536	39	8	
12	0	0	0	0	507	475	0	531	39	8	
13	0	0	0	0	500	484	0	523	39	8	
14	0	0	0	0	503	498	0	516	39	8	
15	0	0	0	0	506	502	0	516	39	8	
0	0	0	0	0	509	507	0	532	39	9	
1	0	0	0	0	499	508	0	533	39	8	
2	0	0	0	0	510	509	0	528	39	8	
3	0	0	0	0	500	511	0	530	39	8	
4	0	0	0	0	502	517	0	528	39	8	
5	0	0	0	0	510	518	0	523	39	8	
6	0	0	0	0	507	513	0	513	39	8	
7	0	0	0	0	496	512	0	506	39	8	
8	0	0	0	0	497	512	0	502	39	8	
9	0	0	0	0	504	507	0	499	39	8	
10	0	0	0	0	501	501	0	501	39	8	
11	0	0	0	0	502	498	0	520	39	8	
12	0	0	0	0	503	505	0	531	39	8	
13	0	0	0	0	503	517	0	526	39	8	
14	0	0	0	0	499	519	0	519	39	8	
15	0	0	0	0	498	512	0	512	39	8	
0	0	0	0	0	501	507	0	507	39	8	
1	0	0	0	0	503	499	0	519	39	8	
2	0	0	0	0	501	492	0	536	39	8	
3	0	0	0	0	510	493	0	537	39	8	
4	0	0	0	0	505	502	0	528	39	8	
5	0	0	0	0	507	513	0	519	39	8	
6	0	0	0	0	510	518	0	511	39	8	
7	0	0	0	0	508	519	0	501	39	8	
8	0	0	0	0	503	518	0	489	39	8	
9	0	0	0	0	502	516	0	487	39	9	
10	0	0	0	0	505	514	0	507	39	8	
11	0	0	0	0	501	503	0	520	39	8	
12	0	0	0	0	505	486	0	518	39	8	
13	0	0	0	0	503	472	0	512	39	8	
14	0	0	0	0	497	460	0	507	39	8	
15	0	0	0	0	498	465	0	504	39	8	
0	0	0	0	0	501	487	0	517	39	8	
1	0	0	0	0	508	510	0	529	39	8	
2	0	0	0	0	509	531	0	528	39	8	
3	0	0	0	0	505	547	0	523	39	8	
4	0	0	0	0	507	545	0	525	39	8	
5	0	0	0	0	498	527	0	519	38	8	
6	0	0	0	0	503	528	0	511	39	8	
7	0	0	0	0	504	533	0	504	39	8	
8	0	0	0	0	508	533	0	500	39	8	
9	0	0	0	0	504	531	0	496	39	8	
10	0	0	0	0	504	524	0	494	39	8	
11	0	0	0	0	500	523	0	504	39	8	
12	0	0	0	0	497	527	0	523	39	8	
13	0	0	0	0	498	523	0	527	39	8	
14	0	0	0	0	509	517	0	521	39	8	
15	0	0	0	0	503	517	0	513	39	8	
0	0	0	0	0	501	521	0	506	39	8	
1	0	0	0	0	504	521	0	507	39	8	
2	0	0	0	0	505	524	0	542	39	9	
3	0	0	0	0	511	530	0	531	39	8	
4	0	0	0	0	503	536	0	523	39	8	
5	0	0	0	0	502	541	0	515	39	8	
6	0	0	0	0	499	539	0	509	39	8	
7	0	0	0	0	508	532	0	508	39	8	
8	0	0	0	0	502	528	0	522	39	8	
9	0	0	0	0	514	524	0	529	39	8	
10	0	0	0	0	491	519	0	525	39	8	
11	0	0	0	0	504	515	0	516	39	8	
12	0	0	0	0	501	518	0	510	39	8	
13	0	0	0	0	504	521	0	505	39	8	
14	0	0	0	0	504	523	0	499	39	8	
15	0	0	0	0	500	529	0	498	39	8	
0	0	0	0	0	505	532	0	502	39	8	
1	0	0	0	0	502	534	0	523	39	8	
2	0	0	0	0	514	532	0	528	39	8	
3	0	0	0	0	504	527	0	524	39	8	
4	0	0	0	0	502	524	0	535	39	8	
5	0	0	0	0	509	524	0	524	39	8	
6	0	0	0	0	494	530	0	518	39	8	
7	0	0	0	0	503	527	0	513	39	8	
8	0	0	0	0	510	518	0	506	39	8	
9	0	0	0	0	512	514	0	518	39	8	
10	0	0	0	0	504	518	0	536	39	8	
11	0	0	0	0	497	520	0	538	39	9	
12	0	0	0	0	502	524	0	531	39	8	
13	0	0	0	0	504	528	0	520	39	8	
14	0	0	0	0	502	529	0	512	39	8	
15	0	0	0	0	502	519	0	504	39	8	
0	0	0	0	0	499	513	0	499	39	8	
1	0	0	0	0	500	517	0	497	39	8	
2	0	0	0	0	511	524	0	512	39	8	
3	0	0	0	0	499	522	0	531	39	8	
4	0	0	0	0	497	522	0	531	39	8	
5	0	0	0	0	509	526	0	529	39	8	
6	0	0	0	0	502	526	0	542	39	8	
7	0	0	0	0	502	518	0	542	39	8	
8	0	0	0	0	504	508	0	530	39	8	
9	0	0	0	0	511	511	0	518	39	8	
10	0	0	0	0	500	512	0	507	39	8	
11	0	0	0	0	503	511	0	498	39	8	
12	0	0	0	0	508	508	0	492	39	8	
13	0	0	0	0	508	513	0	489	39	8	
14	0	0	0	0	499	514	0	486	39	8	
15	0	0	0	0	499	514	0	488	39	8	
0	0	0	0	0	502	512	0	486	39	8	
1	0	0	0	0	501	511	0	502	39	8	
2	0	0	0	0	501	510	0	532	39	8	
3	0	0	0	0	513	510	0	528	39	8	
4	0	0	0	0	506	509	0	532	39	9	
5	0	0	0	0	505	508	0	534	39	8	
6	0	0	0	0	507	502	0	524	39	8	
7	0	0	0	0	507	496	0	526	39	8	
8	0	0	0	0	493	494	0	536	39	8	
9	0	0	0	0	505	490	0	529	39	8	
10	0	0	0	0	511	479	0	517	39	8	
11	0	0	0	0	495	462	0	503	39	8	
12	0	0	0	0	500	464	0	496	39	8	
13	0	0	0	0	499	491	0	489	39	8	
14	0	0	0	0	502	513	0	487	39	8	
15	0	0	0	0	502	523	0	482	39	8	
0	0	0	0	0	497	524	0	478	39	8	
1	0	0	0	0	501	531	0	480	39	8	
2	0	0	0	0	499	540	0	484	39	8	
3	0	0	0	0	499	546	0	511	39	8	
4	0	0	0	0	510	548	0	524	39	8	
5	0	0	0	0	510	538	0	518	39	8	
6	0	0	0	0	504	531	0	523	39	8	
7	0	0	0	0	503	528	0	535	39	8	
8	0	0	0	0	514	532	0	528	39	8	
9	0	0	0	0	499	528	0	517	39	8	
10	0	0	0	0	505	514	0	515	39	8	
11	0	0	0	0	499	502	0	509	39	8	
12	0	0	0	0	505	493	0	501	39	8	
13	0	0	0	0	501	501	0	497	39	9	
14	0	0	0	0	500	502	0	487	39	8	
15	0	0	0	0	510	496	0	481	39	8	
0	0	0	0	0	507	506	0	481	39	8	
1	0	0	0	0	500	514	0	485	39	8	
2	0	0	0	0	502	515	0	508	39	8	
3	0	0	0	0	504	515	0	516	39	8	
4	0	0	0	0	500	512	0	528	39	8	
5	0	0	0	0	502	509	0	536	39	8	
6	0	0	0	0	510	508	0	551	39	8	
7	0	0	0	0	500	503	0	545	39	8	
8	0	0	0	0	496	498	0	538	39	8	
9	0	0	0	0	508	503	0	521	39	8	
10	0	0	0	0	504	509	0	507	39	8	
11	0	0	0	0	509	518	0	496	39	8	
12	0	0	0	0	507	525	0	489	39	8	
13	0	0	0	0	503	532	0	480	39	8	
14	0	0	0	0	501	532	0	475	39	9	
15	0	0	0	0	505	531	0	476	39	8	
0	0	0	0	0	502	528	0	482	39	8	
1	0	0	0	0	503	527	0	503	39	8	
2	0	0	0	0	499	526	0	510	39	8	
3	0	0	0	0	504	525	0	508	39	8	
4	0	0	0	0	504	527	0	503	39	8	
5	0	0	0	0	508	524	0	499	39	8	
6	0	0	0	0	504	522	0	495	39	9	
7	0	0	0	0	503	518	0	488	39	8	
8	0	0	0	0	501	515	0	483	39	8	
9	0	0	0	0	504	514	0	494	39	8	
10	0	0	0	0	503	514	0	515	39	8	
11	0	0	0	0	505	514	0	517	39	8	
12	0	0	0	0	508	507	0	513	39	8	
13	0	0	0	0	501	504	0	516	39	8	
14	0	0	0	0	504	512	0	510	39	8	
15	0	0	0	0	504	519	0	508	39	8	
0	0	0	0	0	504	535	0	527	39	8	
1	0	0	0	0	505	547	0	531	39	8	
2	0	0	0	0	506	543	0	525	39	8	
3	0	0	0	0	494	543	0	515	39	8	
4	0	0	0	0	500	548	0	505	39	8	
5	0	0	0	0	504	554	0	500	39	8	
6	0	0	0	0	503	555	0	495	39	8	
7	0	0	0	0	508	560	0	492	39	8	
8	0	0	0	0	504	568	0	500	39	8	
9	0	0	0	0	509	574	0	513	39	8	
10	0	0	0	0	499	583	0	515	39	8	
11	0	0	0	0	503	599	0	511	39	8	
12	0	0	0	0	506	602	0	504	39	8	
13	0	0	0	0	511	599	0	499	39	8	
14	0	0	0	0	511	601	0	494	39	8	
15	0	0	0	0	500	600	0	495	39	9	
0	0	0	0	0	500	600	0	492	39	8	
1	0	0	0	0	496	607	0	507	39	8	
2	0	0	0	0	497	618	0	527	39	8	
3	0	0	0	0	499	638	0	528	39	8	
4	0	0	0	0	499	651	0	519	39	8	
5	0	0	0	0	500	652	0	509	39	8	
6	0	0	0	0	511	645	0	501	39	8	
7	0	0	0	0	511	639	0	506	39	8	
8	0	0	0	0	508	630	0	517	39	8	
9	0	0	0	0	502	617	0	511	39	8	
10	0	0	0	0	504	593	0	503	39	8	
11	0	0	0	0	498	568	0	508	39	8	
12	0	0	0	0	502	548	0	514	39	8	
13	0	0	0	0	508	540	0	513	39	8	
14	0	0	0	0	507	533	0	505	39	8	
15	0	0	0	0	504	521	0	498	39	8	
0	0	0	0	0	500	501	0	491	39	8	
1	0	0	0	0	500	475	0	487	39	8	
2	0	0	0	0	504	465	0	487	39	8	
3	0	0	0	0	497	465	0	478	39	8	
4	0	0	0	0	508	454	0	474	39	8	
5	0	0	0	0	501	434	0	470	38	8	
6	0	0	0	0	497	411	0	473	39	8	
7	0	0	0	0	502	400	0	473	39	8	
8	0	0	0	0	497	401	0	475	39	9	
9	0	0	0	0	511	401	0	472	39	8	
10	0	0	0	0	508	396	0	468	39	8	
11	0	0	0	0	501	389	0	470	39	8	
12	0	0	0	0	501	382	0	470	39	8	
13	0	0	0	0	509	374	0	473	39	8	
14	0	0	0	0	510	367	0	473	39	8	
15	0	0	0	0	499	376	0	472	39	8	
0	0	0	0	0	496	394	0	471	39	8	
1	0	0	0	0	502	403	0	464	39	8	
2	0	0	0	0	502	407	0	465	39	8	
3	0	0	0	0	500	408	0	466	39	8	
4	0	0	0	0	510	400	0	464	39	8	
5	0	0	0	0	510	403	0	467	38	8	
6	0	0	0	0	502	411	0	466	39	8	
7	0	0	0	0	497	409	0	468	39	8	
8	0	0	0	0	501	409	0	465	39	8	
9	0	0	0	0	513	417	0	460	39	8	
10	0	0	0	0	507	419	0	463	39	8	
11	0	0	0	0	504	418	0	467	39	8	
12	0	0	0	0	503	426	0	467	39	8	
13	0	0	0	0	490	432	0	470	39	8	
14	0	0	0	0	500	432	0	489	39	8	
15	0	0	0	0	502	438	0	508	39	8	
0	0	0	0	0	507	449	0	509	39	8	
1	0	0	0	0	507	457	0	499	39	9	
2	0	0	0	0	491	462	0	492	39	8	
3	0	0	0	0	508	464	0	486	39	8	
4	0	0	0	0	500	473	0	485	39	8	
5	0	0	0	0	509	484	0	496	39	8	
6	0	0	0	0	496	494	0	482	39	8	
7	0	0	0	0	500	501	0	480	39	8	
8	0	0	0	0	506	511	0	475	39	8	
9	0	0	0	0	508	525	0	471	39	8	
10	0	0	0	0	511	527	0	471	39	8	
11	0	0	0	0	498	527	0	474	39	8	
12	0	0	0	0	501	529	0	476	39	8	
13	0	0	0	0	510	535	0	475	39	8	
14	0	0	0	0	505	542	0	476	39	8	
15	0	0	0	0	510	543	0	473	39	8	
0	0	0	0	0	499	545	0	471	39	8	
1	0	0	0	0	495	549	0	467	39	8	
2	0	0	0	0	503	558	0	466	39	8	
3	0	0	0	0	501	565	0	471	39	8	
4	0	0	0	0	504	562	0	473	39	8	
5	0	0	0	0	503	558	0	478	39	8	
6	0	0	0	0	507	561	0	480	39	8	
7	0	0	0	0	494	569	0	499	39	8	
8	0	0	0	0	503	578	0	515	39	8	
9	0	0	0	0	504	578	0	514	39	8	
10	0	0	0	0	511	574	0	507	39	8	
11	0	0	0	0	504	572	0	497	39	8	
12	0	0	0	0	500	566	0	490	39	8	
13	0	0	0	0	505	565	0	486	39	8	
14	0	0	0	0	502	572	0	481	39	8	
15	0	0	0	0	513	576	0	482	39	8	
0	0	0	0	0	506	574	0	477	39	8	
1	0	0	0	0	498	570	0	470	39	8	
2	0	0	0	0	510	570	0	469	39	8	
3	0	0	0	0	501	571	0	470	39	8	
4	0	0	0	0	502	568	0	475	39	8	
5	0	0	0	0	498	572	0	476	39	8	
6	0	0	0	0	504	577	0	476	39	8	
7	0	0	0	0	496	579	0	481	39	8	
8	0	0	0	0	504	577	0	476	39	8	
9	0	0	0	0	495	573	0	476	39	8	
10	0	0	0	0	499	568	0	473	39	8	
11	0	0	0	0	509	573	0	474	39	8	
12	0	0	0	0	503	581	0	478	39	8	
13	0	0	0	0	506	591	0	479	39	8	
14	0	0	0	0	511	600	0	487	39	8	
15	0	0	0	0	499	595	0	511	39	8	
0	0	0	0	0	507	581	0	524	39	8	
1	0	0	0	0	510	563	0	532	39	8	
2	0	0	0	0	495	562	0	550	39	8	
3	0	0	0	0	506	579	0	554	39	9	
4	0	0	0	0	501	583	0	565	39	8	
5	0	0	0	0	505	572	0	564	38	8	
6	0	0	0	0	506	563	0	563	39	8	
7	0	0	0	0	499	567	0	573	39	8	
8	0	0	0	0	497	563	0	569	39	8	
9	0	0	0	0	503	564	0	582	39	8	
10	0	0	0	0	510	583	0	568	39	8	
11	0	0	0	0	506	592	0	563	39	8	
12	0	0	0	0	501	579	0	568	39	8	
13	0	0	0	0	505	576	0	560	38	8	
14	0	0	0	0	501	588	0	556	39	8	
15	0	0	0	0	499	597	0	555	39	8	
0	0	0	0	0	505	593	0	559	39	8	
1	0	0	0	0	509	583	0	560	39	8	
2	0	0	0	0	504	576	0	563	39	8	
3	0	0	0	0	496	568	0	549	39	8	
4	0	0	0	0	503	560	0	549	39	8	
5	0	0	0	0	502	563	0	550	39	8	
6	0	0	0	0	502	569	0	536	39	8	
7	0	0	0	0	508	567	0	520	39	8	
8	0	0	0	0	504	567	0	505	39	8	
9	0	0	0	0	498	568	0	492	39	8	
10	0	0	0	0	502	569	0	494	39	8	
11	0	0	0	0	512	568	0	487	39	8	
12	0	0	0	0	505	572	0	510	39	8	
13	0	0	0	0	503	571	0	518	39	8	
14	0	0	0	0	508	565	0	534	39	8	
15	0	0	0	0	496	563	0	547	39	8	
0	0	0	0	0	500	559	0	547	39	8	
1	0	0	0	0	497	558	0	558	39	8	
2	0	0	0	0	506	566	0	555	39	8	
3	0	0	0	0	504	570	0	559	39	8	
4	0	0	0	0	508	570	0	570	39	8	
5	0	0	0	0	494	571	0	555	39	8	
6	0	0	0	0	505	569	0	566	39	8	
7	0	0	0	0	504	571	0	564	39	8	
8	0	0	0	0	509	575	0	567	39	8	
9	0	0	0	0	504	572	0	567	39	8	
10	0	0	0	0	505	571	0	559	39	8	
11	0	0	0	0	501	579	0	566	39	8	
12	0	0	0	0	502	583	0	557	39	8	
13	0	0	0	0	505	582	0	559	39	8	
14	0	0	0	0	497	580	0	560	39	8	
15	0	0	0	0	504	580	0	550	39	8	
0	0	0	0	0	499	580	0	556	39	8	
1	0	0	0	0	512	588	0	548	39	8	
2	0	0	0	0	499	587	0	542	39	8	
3	0	0	0	0	506	583	0	530	39	8	
4	0	0	0	0	501	573	0	516	39	8	
5	0	0	0	0	506	563	0	504	39	8	
6	0	0	0	0	505	567	0	495	39	8	
7	0	0	0	0	501	575	0	487	39	8	
8	0	0	0	0	502	587	0	486	39	8	
9	0	0	0	0	501	593	0	480	39	8	
10	0	0	0	0	500	593	0	485	39	8	
11	0	0	0	0	496	591	0	504	39	8	
12	0	0	0	0	504	587	0	517	39	8	
13	0	0	0	0	504	583	0	512	39	8	
14	0	0	0	0	507	577	0	502	39	8	
15	0	0	0	0	502	591	0	493	39	8	
0	0	0	0	0	503	604	0	485	39	8	
1	0	0	0	0	499	605	0	499	39	8	
2	0	0	0	0	509	607	0	516	39	8	
3	0	0	0	0	499	604	0	515	39	8	
4	0	0	0	0	509	602	0	507	39	8	
5	0	0	0	0	508	604	0	498	39	8	
6	0	0	0	0	502	606	0	491	39	8	
7	0	0	0	0	510	607	0	494	39	8	
8	0	0	0	0	500	609	0	504	39	8	
9	0	0	0	0	501	609	0	501	39	8	
10	0	0	0	0	504	614	0	496	39	8	
11	0	0	0	0	497	620	0	500	39	8	
12	0	0	0	0	502	625	0	500	39	8	
13	0	0	0	0	507	625	0	492	39	8	
14	0	0	0	0	505	621	0	491	39	8	
15	0	0	0	0	500	615	0	485	39	8	
0	0	0	0	0	509	619	0	481	39	8	
1	0	0	0	0	500	623	0	480	39	8	
2	0	0	0	0	509	624	0	483	39	8	
3	0	0	0	0	502	630	0	510	39	8	
4	0	0	0	0	504	630	0	520	39	8	
5	0	0	0	0	503	623	0	516	39	8	
6	0	0	0	0	508	616	0	510	39	8	
7	0	0	0	0	498	617	0	502	39	8	
8	0	0	0	0	499	620	0	497	39	8	
9	0	0	0	0	501	616	0	492	39	8	
10	0	0	0	0	507	611	0	505	39	8	
11	0	0	0	0	508	608	0	519	39	8	
12	0	0	0	0	503	605	0	518	39	8	
13	0	0	0	0	500	606	0	516	39	8	
14	0	0	0	0	505	612	0	527	39	8	
15	0	0	0	0	507	613	0	529	39	8	
0	0	0	0	0	504	614	0	519	39	8	
1	0	0	0	0	497	612	0	509	39	8	
2	0	0	0	0	498	612	0	499	39	8	
3	0	0	0	0	504	611	0	492	39	8	
4	0	0	0	0	515	604	0	492	39	8	
5	0	0	0	0	511	604	0	488	39	8	
6	0	0	0	0	505	610	0	483	39	8	
7	0	0	0	0	500	616	0	485	39	8	
8	0	0	0	0	497	605	0	484	39	8	
9	0	0	0	0	503	585	0	503	39	8	
10	0	0	0	0	501	577	0	524	39	8	
11	0	0	0	0	509	578	0	526	39	8	
12	0	0	0	0	499	578	0	521	39	8	
13	0	0	0	0	507	577	0	523	39	8	
14	0	0	0	0	502	583	0	516	39	8	
15	0	0	0	0	497	587	0	523	39	8	
0	0	0	0	0	505	591	0	539	39	8	
1	0	0	0	0	512	590	0	536	39	8	
2	0	0	0	0	502	590	0	527	39	8	
3	0	0	0	0	506	585	0	516	39	8	
4	0	0	0	0	502	587	0	508	39	8	
5	0	0	0	0	507	590	0	501	39	8	
6	0	0	0	0	498	584	0	496	39	8	
7	0	0	0	0	498	572	0	489	39	8	
8	0	0	0	0	500	559	0	487	39	8	
9	0	0	0	0	501	551	0	497	39	8	
10	0	0	0	0	500	540	0	523	39	8	
11	0	0	0	0	505	529	0	524	39	8	
12	0	0	0	0	508	529	0	520	39	8	
13	0	0	0	0	506	531	0	512	39	8	
14	0	0	0	0	504	536	0	506	39	8	
15	0	0	0	0	507	542	0	505	39	8	
0	0	0	0	0	505	538	0	517	39	8	
1	0	0	0	0	503	536	0	517	39	8	
2	0	0	0	0	505	529	0	509	39	8	
3	0	0	0	0	502	520	0	502	39	8	
4	0	0	0	0	504	516	0	496	39	8	
5	0	0	0	0	501	514	0	492	39	8	
6	0	0	0	0	509	508	0	488	39	8	
7	0	0	0	0	502	509	0	486	39	8	
8	0	0	0	0	499	512	0	487	39	8	
9	0	0	0	0	503	508	0	490	39	8	
10	0	0	0	0	502	504	0	514	39	8	
11	0	0	0	0	499	500	0	522	39	8	
12	0	0	0	0	507	500	0	518	39	8	
13	0	0	0	0	499	497	0	520	39	8	
14	0	0	0	0	498	488	0	516	39	8	
15	0	0	0	0	508	481	0	513	39	8	
0	0	0	0	0	506	487	0	529	39	8	
1	0	0	0	0	511	490	0	537	39	8	
2	0	0	0	0	505	489	0	532	39	8	
3	0	0	0	0	510	483	0	521	39	8	
4	0	0	0	0	506	469	0	512	39	8	
5	0	0	0	0	493	468	0	502	39	8	
6	0	0	0	0	507	472	0	494	39	8	
7	0	0	0	0	507	475	0	491	39	8	
8	0	0	0	0	502	472	0	492	39	8	
9	0	0	0	0	506	464	0	511	39	8	
10	0	0	0	0	502	455	0	515	39	8	
11	0	0	0	0	499	449	0	510	39	8	
12	0	0	0	0	500	449	0	506	39	8	
13	0	0	0	0	511	450	0	498	39	8	
14	0	0	0	0	506	455	0	497	39	8	
15	0	0	0	0	499	457	0	490	39	8	
0	0	0	0	0	507	456	0	486	39	8	
1	0	0	0	0	506	451	0	498	39	8	
2	0	0	0	0	502	453	0	519	39	8	
3	0	0	0	0	497	451	0	523	39	8	
4	0	0	0	0	503	448	0	516	39	8	
5	0	0	0	0	505	452	0	508	39	8	
6	0	0	0	0	508	458	0	503	39	8	
7	0	0	0	0	508	462	0	504	39	8	
8	0	0	0	0	515	462	0	521	39	8	
9	0	0	0	0	500	464	0	524	39	8	
10	0	0	0	0	498	467	0	519	39	8	
11	0	0	0	0	502	465	0	511	39	8	
12	0	0	0	0	499	469	0	502	39	8	
13	0	0	0	0	500	470	0	500	38	8	
14	0	0	0	0	503	462	0	505	39	8	
15	0	0	0	0	504	463	0	504	39	8	
0	0	0	0	0	504	472	0	513	39	8	
1	0	0	0	0	502	478	0	529	39	8	
2	0	0	0	0	500	480	0	529	39	8	
3	0	0	0	0	506	481	0	520	39	8	
4	0	0	0	0	505	477	0	509	39	8	
5	0	0	0	0	503	473	0	501	39	8	
6	0	0	0	0	498	469	0	510	39	8	
7	0	0	0	0	500	466	0	492	39	8	
8	0	0	0	0	506	464	0	487	39	8	
9	0	0	0	0	505	465	0	500	39	8	
10	0	0	0	0	498	470	0	520	39	8	
11	0	0	0	0	500	466	0	521	39	8	
12	0	0	0	0	504	466	0	513	39	8	
13	0	0	0	0	502	467	0	504	39	8	
14	0	0	0	0	510	479	0	494	39	8	
15	0	0	0	0	508	488	0	500	39	8	
0	0	0	0	0	499	486	0	510	39	8	
1	0	0	0	0	501	484	0	508	39	8	
2	0	0	0	0	504	480	0	499	39	8	
3	0	0	0	0	503	470	0	492	39	8	
4	0	0	0	0	499	476	0	491	39	8	
5	0	0	0	0	506	476	0	481	39	8	
6	0	0	0	0	507	477	0	479	39	8	
7	0	0	0	0	500	469	0	476	39	8	
8	0	0	0	0	508	455	0	472	39	8	
9	0	0	0	0	503	457	0	490	39	8	
10	0	0	0	0	500	466	0	508	39	8	
11	0	0	0	0	500	469	0	519	39	8	
12	0	0	0	0	499	472	0	536	39	8	
13	0	0	0	0	505	466	0	544	39	8	
14	0	0	0	0	504	455	0	547	39	8	
15	0	0	0	0	497	444	0	551	39	8	
0	0	0	0	0	502	453	0	541	39	8	
1	0	0	0	0	499	468	0	532	39	8	
2	0	0	0	0	508	486	0	517	39	8	
3	0	0	0	0	504	492	0	506	39	8	
4	0	0	0	0	501	494	0	495	39	8	
5	0	0	0	0	502	500	0	492	39	8	
6	0	0	0	0	500	491	0	483	39	8	
7	0	0	0	0	513	486	0	480	39	8	
8	0	0	0	0	503	487	0	482	39	8	
9	0	0	0	0	500	484	0	477	39	8	
10	0	0	0	0	507	483	0	480	39	8	
11	0	0	0	0	504	482	0	477	39	8	
12	0	0	0	0	505	478	0	495	39	8	
13	0	0	0	0	497	483	0	514	39	8	
14	0	0	0	0	499	474	0	515	39	8	
15	0	0	0	0	497	463	0	513	39	8	
0	0	0	0	0	505	464	0	525	39	8	
1	0	0	0	0	504	472	0	529	39	8	
2	0	0	0	0	501	475	0	522	39	8	
3	0	0	0	0	502	472	0	509	39	8	
4	0	0	0	0	509	478	0	501	39	8	
5	0	0	0	0	505	483	0	491	39	8	
6	0	0	0	0	509	489	0	483	39	8	
7	0	0	0	0	502	499	0	490	39	8	
8	0	0	0	0	500	503	0	474	39	8	
9	0	0	0	0	503	496	0	470	39	8	
10	0	0	0	0	508	486	0	467	39	8	
11	0	0	0	0	505	479	0	464	39	8	
12	0	0	0	0	497	481	0	471	39	8	
13	0	0	0	0	504	492	0	464	39	8	
14	0	0	0	0	494	497	0	467	39	8	
15	0	0	0	0	498	492	0	466	39	8	
0	0	0	0	0	507	488	0	463	39	8	
1	0	0	0	0	509	485	0	465	39	8	
2	0	0	0	0	497	493	0	459	39	8	
3	0	0	0	0	503	498	0	466	39	8	
4	0	0	0	0	512	502	0	464	39	8	
5	0	0	0	0	503	505	0	463	39	8	
6	0	0	0	0	503	499	0	465	39	8	
7	0	0	0	0	496	499	0	465	39	8	
8	0	0	0	0	507	504	0	467	39	8	
9	0	0	0	0	503	511	0	462	39	8	
10	0	0	0	0	511	513	0	461	39	8	
11	0	0	0	0	505	513	0	464	39	8	
12	0	0	0	0	499	508	0	472	39	8	
13	0	0	0	0	498	503	0	499	39	8	
14	0	0	0	0	508	500	0	508	39	8	
15	0	0	0	0	500	504	0	500	39	8	
0	0	0	0	0	508	510	0	491	39	8	
1	0	0	0	0	499	511	0	486	39	8	
2	0	0	0	0	500	505	0	508	39	8	
3	0	0	0	0	507	497	0	516	39	8	
4	0	0	0	0	506	501	0	530	39	8	
5	0	0	0	0	505	508	0	539	39	8	
6	0	0	0	0	508	510	0	540	39	8	
7	0	0	0	0	501	505	0	551	39	8	
8	0	0	0	0	504	505	0	548	39	8	
9	0	0	0	0	507	502	0	552	39	8	
10	0	0	0	0	498	492	0	558	39	8	
11	0	0	0	0	504	494	0	545	39	8	
12	0	0	0	0	507	493	0	530	39	8	
13	0	0	0	0	501	495	0	524	39	8	
14	0	0	0	0	506	497	0	525	39	8	
15	0	0	0	0	498	493	0	528	39	8	
0	0	0	0	0	502	492	0	539	39	8	
1	0	0	0	0	501	494	0	533	39	8	
2	0	0	0	0	506	499	0	521	39	8	
3	0	0	0	0	500	509	0	509	39	8	
4	0	0	0	0	501	516	0	500	39	8	
5	0	0	0	0	502	513	0	493	39	8	
6	0	0	0	0	503	508	0	489	39	8	
7	0	0	0	0	508	508	0	482	39	8	
8	0	0	0	0	510	513	0	478	39	8	
9	0	0	0	0	501	518	0	475	39	8	
10	0	0	0	0	497	519	0	480	39	8	
11	0	0	0	0	509	517	0	507	39	8	
12	0	0	0	0	507	519	0	521	39	8	
13	0	0	0	0	505	526	0	536	39	8	
14	0	0	0	0	499	530	0	545	39	8	
15	0	0	0	0	499	526	0	533	39	8	
0	0	0	0	0	503	515	0	520	39	8	
1	0	0	0	0	500	500	0	502	39	8	
2	0	0	0	0	509	499	0	490	39	8	
3	0	0	0	0	503	489	0	486	39	8	
4	0	0	0	0	498	487	0	479	39	8	
5	0	0	0	0	496	496	0	479	39	8	
6	0	0	0	0	514	503	0	476	39	8	
7	0	0	0	0	504	512	0	476	39	8	
8	0	0	0	0	497	515	0	470	39	8	
9	0	0	0	0	507	515	0	464	39	8	
10	0	0	0	0	504	515	0	468	39	8	
11	0	0	0	0	497	516	0	466	39	8	
12	0	0	0	0	515	516	0	467	39	8	
13	0	0	0	0	508	517	0	472	39	8	
14	0	0	0	0	500	520	0	474	39	8	
15	0	0	0	0	501	524	0	476	39	8	
0	0	0	0	0	506	519	0	470	39	8	
1	0	0	0	0	505	510	0	467	39	8	
2	0	0	0	0	504	506	0	472	39	8	
3	0	0	0	0	501	505	0	473	39	8	
4	0	0	0	0	496	507	0	476	39	8	
5	0	0	0	0	505	511	0	477	39	8	
6	0	0	0	0	508	514	0	479	39	8	
7	0	0	0	0	502	510	0	480	39	8	
8	0	0	0	0	498	507	0	478	39	8	
9	0	0	0	0	501	507	0	478	39	8	
10	0	0	0	0	503	510	0	476	39	8	
11	0	0	0	0	506	517	0	476	39	8	
12	0	0	0	0	504	526	0	480	39	8	
13	0	0	0	0	509	521	0	481	39	8	
14	0	0	0	0	505	514	0	485	39	8	
15	0	0	0	0	498	519	0	486	39	8	
0	0	0	0	0	502	522	0	483	39	8	
1	0	0	0	0	504	521	0	482	39	8	
2	0	0	0	0	502	522	0	479	39	8	
3	0	0	0	0	501	526	0	483	39	8	
4	0	0	0	0	499	536	0	483	39	8	
5	0	0	0	0	510	539	0	482	39	8	
6	0	0	0	0	507	540	0	484	39	8	
7	0	0	0	0	503	534	0	481	39	8	
8	0	0	0	0	506	524	0	482	39	8	
9	0	0	0	0	507	530	0	502	39	8	
10	0	0	0	0	509	533	0	515	39	8	
11	0	0	0	0	496	526	0	514	39	8	
12	0	0	0	0	496	520	0	507	39	8	
13	0	0	0	0	501	521	0	502	39	8	
14	0	0	0	0	506	522	0	496	39	8	
15	0	0	0	0	497	525	0	488	39	8	
0	0	0	0	0	501	524	0	483	39	8	
1	0	0	0	0	502	520	0	483	39	8	
2	0	0	0	0	502	520	0	509	39	8	
3	0	0	0	0	506	524	0	524	39	8	
4	0	0	0	0	502	524	0	539	39	8	
5	0	0	0	0	503	529	0	550	39	8	
6	0	0	0	0	497	540	0	551	39	8	
7	0	0	0	0	504	545	0	563	39	8	
8	0	0	0	0	511	550	0	564	39	8	
9	0	0	0	0	510	538	0	569	39	8	
10	0	0	0	0	503	535	0	571	39	8	
11	0	0	0	0	505	532	0	563	39	8	
12	0	0	0	0	499	529	0	569	39	8	
13	0	0	0	0	503	524	0	563	39	8	
14	0	0	0	0	514	520	0	564	39	8	
15	0	0	0	0	509	525	0	569	39	8	
0	0	0	0	0	500	524	0	563	39	8	
1	0	0	0	0	511	519	0	568	39	8	
2	0	0	0	0	499	517	0	559	39	8	
3	0	0	0	0	504	513	0	540	39	8	
4	0	0	0	0	501	513	0	524	39	8	
5	0	0	0	0	510	519	0	510	39	8	
6	0	0	0	0	497	520	0	501	39	8	
7	0	0	0	0	498	530	0	497	39	8	
8	0	0	0	0	502	535	0	509	39	8	
9	0	0	0	0	504	532	0	520	39	8	
10	0	0	0	0	509	534	0	519	39	8	
11	0	0	0	0	506	545	0	516	39	8	
12	0	0	0	0	504	551	0	518	39	8	
13	0	0	0	0	504	545	0	513	38	8	
14	0	0	0	0	498	542	0	517	39	8	
15	0	0	0	0	508	545	0	501	39	8	
0	0	0	0	0	505	534	0	497	39	8	
1	0	0	0	0	498	520	0	493	39	8	
2	0	0	0	0	499	525	0	506	39	8	
3	0	0	0	0	497	526	0	524	39	8	
4	0	0	0	0	502	524	0	522	39	8	
5	0	0	0	0	501	527	0	515	38	8	
6	0	0	0	0	509	523	0	507	39	8	
7	0	0	0	0	500	519	0	497	39	8	
8	0	0	0	0	500	520	0	504	39	8	
9	0	0	0	0	501	526	0	519	39	8	
10	0	0	0	0	508	524	0	528	39	8	
11	0	0	0	0	512	522	0	514	39	8	
12	0	0	0	0	506	520	0	506	39	8	
13	0	0	0	0	501	515	0	502	39	8	
14	0	0	0	0	500	513	0	497	39	8	
15	0	0	0	0	498	511	0	496	39	8	
0	0	0	0	0	509	515	0	496	39	8	
1	0	0	0	0	509	515	0	514	39	8	
2	0	0	0	0	503	510	0	534	39	8	
3	0	0	0	0	499	506	0	536	39	8	
4	0	0	0	0	506	508	0	528	39	8	
5	0	0	0	0	500	513	0	518	39	8	
6	0	0	0	0	505	509	0	510	39	8	
7	0	0	0	0	501	500	0	516	39	8	
8	0	0	0	0	502	504	0	531	39	8	
9	0	0	0	0	498	516	0	527	39	8	
10	0	0	0	0	503	531	0	521	39	8	
11	0	0	0	0	504	527	0	526	39	8	
12	0	0	0	0	504	519	0	523	39	8	
13	0	0	0	0	500	519	0	522	39	8	
14	0	0	0	0	503	519	0	511	39	8	
15	0	0	0	0	507	523	0	507	39	8	
0	0	0	0	0	511	527	0	503	39	8	
1	0	0	0	0	508	526	0	502	39	8	
2	0	0	0	0	506	514	0	506	39	8	
3	0	0	0	0	501	507	0	532	39	8	
4	0	0	0	0	502	504	0	543	39	8	
5	0	0	0	0	506	503	0	539	39	8	
6	0	0	0	0	504	500	0	530	39	8	
7	0	0	0	0	503	513	0	520	39	8	
8	0	0	0	0	504	528	0	517	39	8	
9	0	0	0	0	500	530	0	533	39	8	
10	0	0	0	0	508	530	0	543	39	8	
11	0	0	0	0	503	536	0	538	39	8	
12	0	0	0	0	504	540	0	530	39	8	
13	0	0	0	0	496	542	0	522	39	8	
14	0	0	0	0	499	540	0	520	39	8	
15	0	0	0	0	509	541	0	510	39	8	
0	0	0	0	0	501	532	0	516	39	8	
1	0	0	0	0	503	516	0	532	39	8	
2	0	0	0	0	504	506	0	534	39	8	
3	0	0	0	0	503	503	0	529	39	8	
4	0	0	0	0	507	506	0	523	39	8	
5	0	0	0	0	501	511	0	517	39	8	
6	0	0	0	0	503	516	0	513	39	8	
7	0	0	0	0	502	520	0	509	39	8	
8	0	0	0	0	508	513	0	507	39	8	
9	0	0	0	0	498	511	0	520	39	8	
10	0	0	0	0	500	519	0	542	39	8	
11	0	0	0	0	504	520	0	542	39	8	
12	0	0	0	0	503	526	0	537	39	8	
13	0	0	0	0	507	524	0	537	39	8	
14	0	0	0	0	509	521	0	528	39	8	
15	0	0	0	0	497	510	0	530	39	8	
0	0	0	0	0	502	508	0	542	39	8	
1	0	0	0	0	495	507	0	541	39	8	
2	0	0	0	0	504	503	0	530	39	8	
3	0	0	0	0	506	498	0	519	39	8	
4	0	0	0	0	511	505	0	511	39	8	
5	0	0	0	0	509	510	0	505	39	8	
6	0	0	0	0	505	512	0	502	39	8	
7	0	0	0	0	505	508	0	497	39	8	
8	0	0	0	0	502	503	0	494	39	8	
9	0	0	0	0	502	505	0	505	39	8	
10	0	0	0	0	503	510	0	526	39	8	
11	0	0	0	0	489	516	0	531	39	8	
12	0	0	0	0	499	521	0	524	39	8	
13	0	0	0	0	508	520	0	514	38	8	
14	0	0	0	0	507	514	0	506	39	8	
15	0	0	0	0	508	512	0	505	39	8	
0	0	0	0	0	508	522	0	520	39	8	
1	0	0	0	0	502	517	0	521	39	8	
2	0	0	0	0	504	508	0	515	39	8	
3	0	0	0	0	506	502	0	508	39	8	
4	0	0	0	0	496	491	0	500	39	8	
5	0	0	0	0	504	491	0	495	39	8	
6	0	0	0	0	507	504	0	490	39	8	
7	0	0	0	0	497	510	0	503	39	8	
8	0	0	0	0	501	515	0	497	39	8	
9	0	0	0	0	504	519	0	513	39	8	
10	0	0	0	0	495	517	0	512	39	8	
11	0	0	0	0	499	513	0	508	39	8	
12	0	0	0	0	509	515	0	515	39	8	
13	0	0	0	0	505	523	0	511	39	8	
14	0	0	0	0	500	539	0	504	39	8	
15	0	0	0	0	504	545	0	497	39	8	
0	0	0	0	0	510	561	0	493	39	8	
1	0	0	0	0	509	564	0	489	39	8	
2	0	0	0	0	496	563	0	499	39	8	
3	0	0	0	0	504	570	0	522	39	8	
4	0	0	0	0	507	573	0	527	39	8	
5	0	0	0	0	498	579	0	522	39	8	
6	0	0	0	0	495	583	0	531	39	8	
7	0	0	0	0	498	584	0	539	39	8	
8	0	0	0	0	500	590	0	532	39	8	
9	0	0	0	0	504	597	0	521	39	8	
10	0	0	0	0	507	600	0	517	39	8	
11	0	0	0	0	505	594	0	499	39	8	
12	0	0	0	0	498	591	0	492	39	8	
13	0	0	0	0	505	592	0	486	39	8	
14	0	0	0	0	508	595	0	484	39	8	
15	0	0	0	0	504	597	0	481	39	8	
0	0	0	0	0	500	605	0	480	39	8	
1	0	0	0	0	505	615	0	492	39	8	
2	0	0	0	0	496	622	0	515	39	8	
3	0	0	0	0	499	615	0	520	39	8	
4	0	0	0	0	505	600	0	517	39	8	
5	0	0	0	0	506	587	0	507	39	8	
6	0	0	0	0	506	568	0	512	39	8	
7	0	0	0	0	503	549	0	490	39	8	
8	0	0	0	0	507	532	0	487	39	8	
9	0	0	0	0	505	520	0	500	39	8	
10	0	0	0	0	506	510	0	510	39	8	
11	0	0	0	0	503	499	0	508	39	8	
12	0	0	0	0	504	491	0	509	39	8	
13	0	0	0	0	500	479	0	522	39	8	
14	0	0	0	0	499	467	0	507	39	8	
15	0	0	0	0	505	454	0	518	39	8	
0	0	0	0	0	508	437	0	528	39	8	
1	0	0	0	0	507	416	0	524	39	8	
2	0	0	0	0	507	398	0	516	39	8	
3	0	0	0	0	504	386	0	505	39	8	
4	0	0	0	0	510	377	0	497	39	8	
5	0	0	0	0	509	368	0	492	39	8	
6	0	0	0	0	503	355	0	487	39	8	
7	0	0	0	0	499	343	0	487	39	8	
8	0	0	0	0	501	339	0	483	39	8	
9	0	0	0	0	498	336	0	499	39	8	
10	0	0	0	0	505	339	0	519	39	8	
11	0	0	0	0	501	345	0	520	39	8	
12	0	0	0	0	494	353	0	512	39	8	
13	0	0	0	0	498	359	0	503	39	8	
14	0	0	0	0	500	363	0	495	39	8	
15	0	0	0	0	502	371	0	499	39	8	
0	0	0	0	0	500	378	0	510	39	8	
1	0	0	0	0	506	384	0	505	39	8	
2	0	0	0	0	508	391	0	496	39	8	
3	0	0	0	0	499	403	0	488	39	8	
4	0	0	0	0	505	410	0	486	39	8	
5	0	0	0	0	508	404	0	480	39	8	
6	0	0	0	0	504	410	0	480	39	8	
7	0	0	0	0	504	420	0	476	39	8	
8	0	0	0	0	499	426	0	475	39	8	
9	0	0	0	0	498	432	0	488	39	8	
10	0	0	0	0	503	435	0	513	39	8	
11	0	0	0	0	507	437	0	518	39	8	
12	0	0	0	0	508	442	0	514	39	8	
13	0	0	0	0	499	456	0	518	39	8	
14	0	0	0	0	499	472	0	512	39	8	
15	0	0	0	0	503	475	0	511	39	8	
0	0	0	0	0	509	487	0	527	39	8	
1	0	0	0	0	503	499	0	529	39	8	
2	0	0	0	0	504	495	0	519	39	8	
3	0	0	0	0	499	485	0	510	39	8	
4	0	0	0	0	506	486	0	501	39	8	
5	0	0	0	0	504	501	0	496	39	8	
6	0	0	0	0	513	520	0	489	39	8	
7	0	0	0	0	503	534	0	485	39	8	
8	0	0	0	0	503	548	0	495	39	8	
9	0	0	0	0	495	558	0	507	39	8	
10	0	0	0	0	499	557	0	509	39	8	
11	0	0	0	0	508	551	0	505	39	8	
12	0	0	0	0	498	553	0	498	39	8	
13	0	0	0	0	504	559	0	495	39	8	
14	0	0	0	0	506	560	0	489	39	8	
15	0	0	0	0	494	559	0	487	39	8	
0	0	0	0	0	507	556	0	484	39	8	
1	0	0	0	0	499	552	0	498	39	8	
2	0	0	0	0	500	550	0	536	39	8	
3	0	0	0	0	505	550	0	521	39	8	
4	0	0	0	0	504	555	0	517	39	8	
5	0	0	0	0	496	558	0	509	39	8	
6	0	0	0	0	509	559	0	500	39	8	
7	0	0	0	0	503	556	0	506	39	8	
8	0	0	0	0	507	552	0	518	39	8	
9	0	0	0	0	504	553	0	515	39	8	
10	0	0	0	0	498	558	0	509	39	8	
11	0	0	0	0	499	553	0	513	39	8	
12	0	0	0	0	494	558	0	513	39	8	
13	0	0	0	0	505	572	0	507	39	8	
14	0	0	0	0	499	577	0	503	39	8	
15	0	0	0	0	504	571	0	499	39	8	
0	0	0	0	0	499	564	0	495	39	8	
1	0	0	0	0	504	567	0	494	39	8	
2	0	0	0	0	505	566	0	498	39	8	
3	0	0	0	0	507	566	0	523	39	8	
4	0	0	0	0	503	567	0	533	39	8	
5	0	0	0	0	508	563	0	528	39	8	
6	0	0	0	0	498	560	0	521	39	8	
7	0	0	0	0	509	551	0	513	39	8	
8	0	0	0	0	503	543	0	509	39	8	
9	0	0	0	0	499	535	0	525	39	8	
10	0	0	0	0	499	535	0	533	39	8	
11	0	0	0	0	507	545	0	528	39	8	
12	0	0	0	0	504	551	0	519	39	8	
13	0	0	0	0	505	554	0	509	39	8	
14	0	0	0	0	505	555	0	503	39	8	
15	0	0	0	0	504	557	0	496	39	8	
0	0	0	0	0	504	566	0	500	39	8	
1	0	0	0	0	499	568	0	515	39	8	
2	0	0	0	0	507	568	0	515	39	8	
3	0	0	0	0	507	572	0	511	39	8	
4	0	0	0	0	503	570	0	503	39	8	
5	0	0	0	0	501	560	0	499	39	8	
6	0	0	0	0	497	545	0	494	39	8	
7	0	0	0	0	507	543	0	495	39	8	
8	0	0	0	0	510	547	0	494	39	8	
9	0	0	0	0	511	544	0	509	39	8	
10	0	0	0	0	501	546	0	529	39	8	
11	0	0	0	0	506	542	0	530	39	8	
12	0	0	0	0	502	541	0	523	39	8	
13	0	0	0	0	507	551	0	512	39	8	
14	0	0	0	0	501	569	0	502	39	8	
15	0	0	0	0	502	577	0	508	39	8	
0	0	0	0	0	497	578	0	524	39	8	
1	0	0	0	0	492	574	0	524	39	8	
2	0	0	0	0	507	576	0	519	39	8	
3	0	0	0	0	513	569	0	510	39	8	
4	0	0	0	0	504	562	0	505	39	8	
5	0	0	0	0	498	560	0	499	39	8	
6	0	0	0	0	497	565	0	496	39	8	
7	0	0	0	0	506	570	0	493	39	8	
8	0	0	0	0	508	564	0	491	39	8	
9	0	0	0	0	507	564	0	502	39	8	
10	0	0	0	0	497	559	0	526	39	8	
11	0	0	0	0	505	561	0	533	39	8	
12	0	0	0	0	504	563	0	527	39	8	
13	0	0	0	0	507	553	0	517	39	8	
14	0	0	0	0	500	548	0	512	39	8	
15	0	0	0	0	502	546	0	511	39	8	
0	0	0	0	0	502	543	0	527	39	8	
1	0	0	0	0	504	546	0	526	39	8	
2	0	0	0	0	504	556	0	520	39	8	
3	0	0	0	0	500	565	0	513	39	8	
4	0	0	0	0	507	568	0	507	39	8	
5	0	0	0	0	503	568	0	503	39	8	
6	0	0	0	0	516	574	0	500	39	8	
7	0	0	0	0	513	577	0	500	39	8	
8	0	0	0	0	500	574	0	509	39	8	
9	0	0	0	0	501	574	0	523	39	8	
10	0	0	0	0	496	581	0	526	39	8	
11	0	0	0	0	501	577	0	523	39	8	
12	0	0	0	0	500	568	0	529	39	8	
13	0	0	0	0	505	563	0	526	39	8	
14	0	0	0	0	503	561	0	519	39	8	
15	0	0	0	0	501	563	0	513	39	8	
0	0	0	0	0	507	565	0	508	39	8	
1	0	0	0	0	503	569	0	503	39	8	
2	0	0	0	0	503	575	0	512	39	8	
3	0	0	0	0	501	577	0	533	39	8	
4	0	0	0	0	505	577	0	537	39	8	
5	0	0	0	0	508	579	0	530	39	8	
6	0	0	0	0	506	581	0	519	39	8	
7	0	0	0	0	499	586	0	510	39	8	
8	0	0	0	0	509	587	0	509	39	8	
9	0	0	0	0	502	583	0	525	39	8	
10	0	0	0	0	502	576	0	527	39	8	
11	0	0	0	0	507	568	0	519	39	8	
12	0	0	0	0	497	570	0	512	39	8	
13	0	0	0	0	500	569	0	502	39	8	
14	0	0	0	0	512	565	0	496	39	8	
15	0	0	0	0	512	568	0	495	39	8	
0	0	0	0	0	508	568	0	483	39	8	
1	0	0	0	0	499	571	0	480	39	8	
2	0	0	0	0	502	576	0	483	39	8	
3	0	0	0	0	501	578	0	508	39	8	
4	0	0	0	0	506	579	0	519	39	8	
5	0	0	0	0	505	586	0	516	39	8	
6	0	0	0	0	499	588	0	523	39	8	
7	0	0	0	0	494	583	0	536	39	8	
8	0	0	0	0	503	586	0	532	39	8	
9	0	0	0	0	506	587	0	524	39	8	
10	0	0	0	0	508	583	0	524	39	8	
11	0	0	0	0	507	582	0	528	39	8	
12	0	0	0	0	506	583	0	513	39	8	
13	0	0	0	0	497	586	0	506	38	8	
14	0	0	0	0	503	584	0	501	39	8	
15	0	0	0	0	497	584	0	496	39	8	
0	0	0	0	0	499	585	0	495	39	8	
1	0	0	0	0	507	589	0	490	39	8	
2	0	0	0	0	508	594	0	492	39	8	
3	0	0	0	0	504	596	0	487	39	8	
4	0	0	0	0	500	599	0	484	39	8	
5	0	0	0	0	509	598	0	486	39	8	
6	0	0	0	0	514	595	0	485	39	8	
7	0	0	0	0	500	590	0	491	39	8	
8	0	0	0	0	504	587	0	481	39	8	
9	0	0	0	0	510	590	0	477	39	8	
10	0	0	0	0	498	591	0	480	39	8	
11	0	0	0	0	507	586	0	480	39	8	
12	0	0	0	0	503	580	0	486	39	8	
13	0	0	0	0	496	574	0	484	39	8	
14	0	0	0	0	498	573	0	486	39	8	
15	0	0	0	0	502	573	0	487	39	8	
0	0	0	0	0	504	565	0	480	39	8	
1	0	0	0	0	498	570	0	478	39	8	
2	0	0	0	0	497	575	0	474	39	8	
3	0	0	0	0	505	573	0	474	39	8	
4	0	0	0	0	505	563	0	476	39	8	
5	0	0	0	0	508	558	0	476	39	8	
6	0	0	0	0	506	565	0	482	39	8	
7	0	0	0	0	505	564	0	481	39	8	
8	0	0	0	0	507	562	0	481	39	8	
9	0	0	0	0	497	566	0	478	39	8	
10	0	0	0	0	502	572	0	485	39	8	
11	0	0	0	0	499	572	0	514	39	8	
12	0	0	0	0	511	563	0	524	39	8	
13	0	0	0	0	504	547	0	521	39	8	
14	0	0	0	0	502	539	0	513	39	8	
15	0	0	0	0	504	542	0	502	39	8	
0	0	0	0	0	500	543	0	495	39	8	
1	0	0	0	0	498	548	0	484	39	8	
2	0	0	0	0	507	552	0	481	39	8	
3	0	0	0	0	504	551	0	485	39	8	
4	0	0	0	0	498	549	0	486	39	8	
5	0	0	0	0	498	547	0	489	39	8	
6	0	0	0	0	514	541	0	490	39	8	
7	0	0	0	0	504	537	0	489	39	8	
8	0	0	0	0	501	536	0	487	39	8	
9	0	0	0	0	500	528	0	484	39	8	
10	0	0	0	0	498	522	0	486	39	8	
11	0	0	0	0	500	524	0	487	39	8	
12	0	0	0	0	510	522	0	489	39	8	
13	0	0	0	0	511	517	0	492	39	8	
14	0	0	0	0	508	511	0	492	39	8	
15	0	0	0	0	502	503	0	496	39	8	
0	0	0	0	0	505	490	0	492	39	8	
1	0	0	0	0	498	481	0	490	39	8	
2	0	0	0	0	497	473	0	492	39	8	
3	0	0	0	0	504	470	0	492	39	8	
4	0	0	0	0	499	469	0	495	39	8	
5	0	0	0	0	501	473	0	496	39	8	
6	0	0	0	0	504	480	0	495	39	8	
7	0	0	0	0	504	484	0	495	39	8	
8	0	0	0	0	505	477	0	490	39	8	
9	0	0	0	0	505	468	0	487	39	8	
10	0	0	0	0	508	460	0	486	39	8	
11	0	0	0	0	507	451	0	505	39	8	
12	0	0	0	0	502	444	0	530	39	8	
13	0	0	0	0	508	438	0	535	39	8	
14	0	0	0	0	507	438	0	531	39	8	
15	0	0	0	0	505	434	0	521	39	8	
0	0	0	0	0	509	427	0	511	39	8	
1	0	0	0	0	497	425	0	504	39	8	
2	0	0	0	0	493	426	0	496	39	8	
3	0	0	0	0	505	428	0	496	39	8	
4	0	0	0	0	507	437	0	495	39	8	
5	0	0	0	0	510	445	0	494	39	8	
6	0	0	0	0	497	441	0	497	39	8	
7	0	0	0	0	499	435	0	493	39	8	
8	0	0	0	0	503	436	0	492	39	8	
9	0	0	0	0	500	434	0	488	39	8	
10	0	0	0	0	511	433	0	486	39	8	
11	0	0	0	0	508	435	0	492	39	8	
12	0	0	0	0	502	432	0	492	39	8	
13	0	0	0	0	504	432	0	495	38	8	
14	0	0	0	0	507	434	0	498	39	8	
15	0	0	0	0	505	438	0	495	39	8	
0	0	0	0	0	498	441	0	492	39	8	
1	0	0	0	0	507	436	0	494	39	8	
2	0	0	0	0	493	428	0	519	39	8	
3	0	0	0	0	504	420	0	532	39	8	
4	0	0	0	0	508	421	0	551	39	8	
5	0	0	0	0	506	429	0	569	38	8	
6	0	0	0	0	506	438	0	572	39	8	
7	0	0	0	0	502	442	0	583	39	8	
8	0	0	0	0	504	444	0	573	39	8	
9	0	0	0	0	504	443	0	572	39	8	
10	0	0	0	0	507	441	0	574	39	8	
11	0	0	0	0	502	435	0	569	39	8	
12	0	0	0	0	504	431	0	579	39	8	
13	0	0	0	0	503	433	0	575	39	8	
14	0	0	0	0	503	425	0	577	39	8	
15	0	0	0	0	507	415	0	578	39	8	
0	0	0	0	0	509	418	0	570	39	8	
1	0	0	0	0	507	416	0	578	39	8	
2	0	0	0	0	500	404	0	573	39	8	
3	0	0	0	0	504	403	0	574	39	8	
4	0	0	0	0	502	416	0	575	39	8	
5	0	0	0	0	504	427	0	567	39	8	
6	0	0	0	0	506	435	0	574	39	8	
7	0	0	0	0	502	439	0	567	39	8	
8	0	0	0	0	501	435	0	568	39	8	
9	0	0	0	0	510	439	0	574	39	8	
10	0	0	0	0	504	442	0	569	39	8	
11	0	0	0	0	512	451	0	575	39	8	
12	0	0	0	0	501	459	0	568	39	8	
13	0	0	0	0	508	459	0	568	39	8	
14	0	0	0	0	504	457	0	570	39	8	
15	0	0	0	0	508	445	0	562	39	8	
0	0	0	0	0	504	435	0	569	39	8	
1	0	0	0	0	504	436	0	564	39	8	
2	0	0	0	0	497	443	0	547	39	8	
3	0	0	0	0	502	450	0	529	39	8	
4	0	0	0	0	504	452	0	513	39	8	
5	0	0	0	0	499	449	0	503	39	8	
6	0	0	0	0	502	443	0	493	39	8	
7	0	0	0	0	501	444	0	489	39	8	
8	0	0	0	0	503	451	0	497	39	8	
9	0	0	0	0	499	455	0	511	39	8	
10	0	0	0	0	502	444	0	514	39	8	
11	0	0	0	0	510	432	0	508	39	8	
12	0	0	0	0	512	440	0	514	39	8	
13	0	0	0	0	508	453	0	528	39	8	
14	0	0	0	0	500	456	0	505	39	8	
15	0	0	0	0	497	455	0	498	39	8	
0	0	0	0	0	510	450	0	493	39	8	
1	0	0	0	0	510	447	0	491	39	8	
2	0	0	0	0	508	444	0	500	39	8	
3	0	0	0	0	498	447	0	520	39	8	
4	0	0	0	0	501	452	0	525	39	8	
5	0	0	0	0	494	457	0	518	39	8	
6	0	0	0	0	495	463	0	508	39	8	
7	0	0	0	0	503	460	0	502	39	8	
8	0	0	0	0	503	448	0	502	39	8	
9	0	0	0	0	503	443	0	519	39	8	
10	0	0	0	0	506	444	0	520	39	8	
11	0	0	0	0	509	447	0	531	39	8	
12	0	0	0	0	510	445	0	541	39	8	
13	0	0	0	0	508	444	0	540	39	8	
14	0	0	0	0	503	447	0	551	39	8	
15	0	0	0	0	504	454	0	543	39	8	
0	0	0	0	0	503	453	0	526	39	8	
1	0	0	0	0	506	452	0	514	39	8	
2	0	0	0	0	507	455	0	502	39	8	
3	0	0	0	0	498	462	0	497	39	8	
4	0	0	0	0	504	468	0	491	39	8	
5	0	0	0	0	507	472	0	489	39	8	
6	0	0	0	0	494	468	0	488	39	8	
7	0	0	0	0	500	463	0	490	39	8	
8	0	0	0	0	502	459	0	508	39	8	
9	0	0	0	0	502	459	0	515	39	8	
10	0	0	0	0	504	460	0	510	39	8	
11	0	0	0	0	505	465	0	514	39	8	
12	0	0	0	0	504	465	0	513	39	8	
13	0	0	0	0	500	464	0	510	39	8	
14	0	0	0	0	509	464	0	502	39	8	
15	0	0	0	0	499	463	0	496	39	8	
0	0	0	0	0	501	463	0	496	39	8	
1	0	0	0	0	506	462	0	490	39	8	
2	0	0	0	0	499	463	0	493	39	8	
3	0	0	0	0	507	461	0	510	39	8	
4	0	0	0	0	503	464	0	519	39	8	
5	0	0	0	0	504	471	0	515	39	8	
6	0	0	0	0	499	463	0	507	39	8	
7	0	0	0	0	497	461	0	500	39	8	
8	0	0	0	0	502	472	0	493	39	8	
9	0	0	0	0	504	465	0	504	39	8	
10	0	0	0	0	504	458	0	524	39	8	
11	0	0	0	0	502	451	0	522	39	8	
12	0	0	0	0	499	457	0	514	39	8	
13	0	0	0	0	504	470	0	504	39	8	
14	0	0	0	0	506	471	0	495	39	8	
15	0	0	0	0	509	467	0	499	39	8	
0	0	0	0	0	497	465	0	509	39	8	
1	0	0	0	0	500	467	0	504	39	8	
2	0	0	0	0	506	465	0	497	39	8	
3	0	0	0	0	513	457	0	488	39	8	
4	0	0	0	0	500	449	0	487	39	8	
5	0	0	0	0	501	450	0	478	39	8	
6	0	0	0	0	505	457	0	477	39	8	
7	0	0	0	0	499	455	0	475	39	8	
8	0	0	0	0	503	457	0	474	39	8	
9	0	0	0	0	502	465	0	488	39	8	
10	0	0	0	0	492	467	0	512	39	8	
11	0	0	0	0	506	468	0	516	39	8	
12	0	0	0	0	504	474	0	512	39	8	
13	0	0	0	0	507	477	0	522	39	8	
14	0	0	0	0	503	479	0	534	39	8	
15	0	0	0	0	505	480	0	536	39	8	
0	0	0	0	0	503	487	0	547	39	8	
1	0	0	0	0	508	493	0	540	39	8	
2	0	0	0	0	511	487	0	524	39	8	
3	0	0	0	0	515	482	0	511	39	8	
4	0	0	0	0	504	480	0	499	39	8	
5	0	0	0	0	497	470	0	492	39	8	
6	0	0	0	0	511	470	0	484	39	8	
7	0	0	0	0	498	489	0	481	39	8	
8	0	0	0	0	505	505	0	481	39	8	
9	0	0	0	0	510	505	0	482	39	8	
10	0	0	0	0	501	502	0	505	39	8	
11	0	0	0	0	497	493	0	512	39	8	
12	0	0	0	0	505	487	0	508	39	8	
13	0	0	0	0	506	486	0	501	39	8	
14	0	0	0	0	496	487	0	493	39	8	
15	0	0	0	0	500	483	0	492	39	8	
0	0	0	0	0	504	477	0	505	39	8	
1	0	0	0	0	505	470	0	512	39	8	
2	0	0	0	0	505	473	0	512	39	8	
3	0	0	0	0	509	483	0	501	39	8	
4	0	0	0	0	509	491	0	496	39	8	
5	0	0	0	0	500	487	0	488	38	8	
6	0	0	0	0	498	487	0	483	39	8	
7	0	0	0	0	507	488	0	481	39	8	
8	0	0	0	0	501	472	0	473	39	8	
9	0	0	0	0	498	463	0	470	39	8	
10	0	0	0	0	498	464	0	468	39	8	
11	0	0	0	0	514	480	0	467	39	8	
12	0	0	0	0	498	496	0	472	39	8	
13	0	0	0	0	496	502	0	472	39	8	
14	0	0	0	0	507	500	0	476	39	8	
15	0	0	0	0	504	492	0	475	39	8	
0	0	0	0	0	506	486	0	473	39	8	
1	0	0	0	0	497	489	0	473	39	8	
2	0	0	0	0	502	499	0	470	39	8	
3	0	0	0	0	503	504	0	474	39	8	
4	0	0	0	0	510	494	0	475	39	8	
5	0	0	0	0	507	484	0	474	39	8	
6	0	0	0	0	499	486	0	477	39	8	
7	0	0	0	0	502	487	0	475	39	8	
8	0	0	0	0	506	484	0	475	39	8	
9	0	0	0	0	502	482	0	471	39	8	
10	0	0	0	0	500	484	0	467	39	8	
11	0	0	0	0	502	492	0	475	39	8	
12	0	0	0	0	505	498	0	481	39	8	
13	0	0	0	0	500	503	0	509	39	8	
14	0	0	0	0	505	500	0	519	39	8	
15	0	0	0	0	505	490	0	511	39	8	
0	0	0	0	0	499	478	0	500	39	8	
1	0	0	0	0	508	474	0	495	39	8	
2	0	0	0	0	501	476	0	516	39	8	
3	0	0	0	0	509	489	0	523	39	8	
4	0	0	0	0	500	487	0	535	39	8	
5	0	0	0	0	508	474	0	543	39	8	
6	0	0	0	0	515	466	0	544	39	8	
7	0	0	0	0	496	475	0	558	39	8	
8	0	0	0	0	504	484	0	552	39	8	
9	0	0	0	0	503	486	0	554	39	8	
10	0	0	0	0	497	487	0	560	39	8	
11	0	0	0	0	500	488	0	546	39	8	
12	0	0	0	0	499	498	0	528	39	8	
13	0	0	0	0	511	502	0	510	39	8	
14	0	0	0	0	506	500	0	508	39	8	
15	0	0	0	0	508	503	0	514	39	8	
0	0	0	0	0	503	505	0	526	39	8	
1	0	0	0	0	504	505	0	527	39	8	
2	0	0	0	0	502	500	0	512	39	8	
3	0	0	0	0	507	488	0	501	39	8	
4	0	0	0	0	507	487	0	493	39	8	
5	0	0	0	0	501	493	0	486	39	8	
6	0	0	0	0	504	501	0	484	39	8	
7	0	0	0	0	503	509	0	479	39	8	
8	0	0	0	0	499	514	0	478	39	8	
9	0	0	0	0	500	514	0	489	39	8	
10	0	0	0	0	507	509	0	512	39	8	
11	0	0	0	0	504	504	0	518	39	8	
12	0	0	0	0	499	507	0	512	39	8	
13	0	0	0	0	503	513	0	502	39	8	
14	0	0	0	0	492	515	0	495	39	8	
15	0	0	0	0	501	521	0	494	39	8	
0	0	0	0	0	504	530	0	507	39	8	
1	0	0	0	0	505	534	0	506	39	8	
2	0	0	0	0	503	521	0	499	39	8	
3	0	0	0	0	507	515	0	492	39	8	
4	0	0	0	0	505	515	0	487	39	8	
5	0	0	0	0	505	510	0	483	39	8	
6	0	0	0	0	505	505	0	479	39	8	
7	0	0	0	0	508	504	0	476	39	8	
8	0	0	0	0	507	505	0	486	39	8	
9	0	0	0	0	506	507	0	505	39	8	
10	0	0	0	0	502	504	0	508	39	8	
11	0	0	0	0	504	509	0	504	39	8	
12	0	0	0	0	497	508	0	511	39	8	
13	0	0	0	0	502	521	0	507	39	8	
14	0	0	0	0	502	534	0	500	39	8	
15	0	0	0	0	508	537	0	495	39	8	
0	0	0	0	0	497	529	0	486	39	8	
1	0	0	0	0	502	518	0	481	39	8	
2	0	0	0	0	506	517	0	480	39	8	
3	0	0	0	0	498	517	0	477	39	8	
4	0	0	0	0	498	514	0	480	39	8	
5	0	0	0	0	502	512	0	502	38	8	
6	0	0	0	0	509	512	0	520	39	8	
7	0	0	0	0	509	503	0	532	39	8	
8	0	0	0	0	504	498	0	547	39	8	
9	0	0	0	0	502	497	0	540	39	8	
10	0	0	0	0	499	494	0	525	39	8	
11	0	0	0	0	501	483	0	512	39	8	
12	0	0	0	0	504	480	0	503	39	8	
13	0	0	0	0	498	476	0	497	39	8	
14	0	0	0	0	502	473	0	496	39	8	
15	0	0	0	0	500	480	0	493	39	8	
0	0	0	0	0	505	482	0	490	39	8	
1	0	0	0	0	505	483	0	501	39	8	
2	0	0	0	0	503	478	0	525	39	8	
3	0	0	0	0	506	468	0	531	39	8	
4	0	0	0	0	505	468	0	528	39	8	
5	0	0	0	0	502	475	0	518	39	8	
6	0	0	0	0	505	479	0	509	39	8	
7	0	0	0	0	508	477	0	510	39	8	
8	0	0	0	0	510	472	0	524	39	8	
9	0	0	0	0	502	487	0	523	39	8	
10	0	0	0	0	503	497	0	515	39	8	
11	0	0	0	0	502	495	0	518	39	8	
12	0	0	0	0	499	494	0	515	39	8	
13	0	0	0	0	510	492	0	511	39	8	
14	0	0	0	0	504	495	0	507	39	8	
15	0	0	0	0	508	491	0	501	39	8	
0	0	0	0	0	498	489	0	503	39	8	
1	0	0	0	0	498	495	0	495	39	8	
2	0	0	0	0	509	493	0	499	39	8	
3	0	0	0	0	503	492	0	517	39	8	
4	0	0	0	0	503	494	0	529	39	8	
5	0	0	0	0	495	499	0	527	39	8	
6	0	0	0	0	502	495	0	521	39	8	
7	0	0	0	0	501	492	0	519	39	8	
8	0	0	0	0	508	495	0	511	39	8	
9	0	0	0	0	502	487	0	522	39	8	
10	0	0	0	0	499	476	0	541	39	8	
11	0	0	0	0	503	476	0	541	39	8	
12	0	0	0	0	502	474	0	532	39	8	
13	0	0	0	0	504	473	0	521	39	8	
14	0	0	0	0	502	473	0	510	39	8	
15	0	0	0	0	508	478	0	515	39	8	
0	0	0	0	0	506	479	0	526	39	8	
1	0	0	0	0	506	480	0	525	39	8	
2	0	0	0	0	499	487	0	516	39	8	
3	0	0	0	0	504	494	0	509	39	8	
4	0	0	0	0	505	496	0	505	39	8	
5	0	0	0	0	508	499	0	502	39	8	
6	0	0	0	0	502	515	0	501	39	8	
7	0	0	0	0	503	524	0	497	39	8	
8	0	0	0	0	503	527	0	495	39	8	
9	0	0	0	0	503	526	0	507	39	8	
10	0	0	0	0	505	520	0	529	39	8	
11	0	0	0	0	503	512	0	533	39	8	
12	0	0	0	0	502	508	0	530	39	8	
13	0	0	0	0	505	498	0	532	39	8	
14	0	0	0	0	505	494	0	528	39	8	
15	0	0	0	0	501	496	0	525	39	8	
0	0	0	0	0	497	500	0	540	39	8	
1	0	0	0	0	505	500	0	543	39	8	
2	0	0	0	0	500	495	0	533	39	8	
3	0	0	0	0	506	496	0	523	39	8	
4	0	0	0	0	509	495	0	516	39	8	
5	0	0	0	0	507	487	0	520	38	8	
6	0	0	0	0	507	478	0	521	39	8	
7	0	0	0	0	506	475	0	515	39	8	
8	0	0	0	0	502	481	0	510	39	8	
9	0	0	0	0	506	479	0	501	39	8	
10	0	0	0	0	503	476	0	496	39	8	
11	0	0	0	0	504	476	0	493	39	8	
12	0	0	0	0	504	477	0	507	39	8	
13	0	0	0	0	506	488	0	524	38	8	
14	0	0	0	0	498	503	0	531	39	8	
15	0	0	0	0	498	519	0	550	39	8	
0	0	0	0	0	498	527	0	547	39	8	
1	0	0	0	0	505	522	0	532	39	8	
2	0	0	0	0	503	525	0	518	39	8	
3	0	0	0	0	503	527	0	504	39	8	
4	0	0	0	0	501	526	0	497	39	8	
5	0	0	0	0	505	533	0	488	38	8	
6	0	0	0	0	503	543	0	484	39	8	
7	0	0	0	0	505	554	0	483	39	8	
8	0	0	0	0	509	556	0	475	39	8	
9	0	0	0	0	510	551	0	474	39	8	
10	0	0	0	0	500	553	0	473	39	8	
11	0	0	0	0	512	557	0	474	39	8	
12	0	0	0	0	507	558	0	480	39	8	
13	0	0	0	0	501	559	0	480	39	8	
14	0	0	0	0	500	563	0	485	39	8	
15	0	0	0	0	499	567	0	483	39	8	
0	0	0	0	0	503	561	0	481	39	8	
1	0	0	0	0	502	567	0	483	39	8	
2	0	0	0	0	504	582	0	482	39	8	
3	0	0	0	0	503	595	0	486	39	8	
4	0	0	0	0	503	607	0	483	39	8	
5	0	0	0	0	503	617	0	483	39	8	
6	0	0	0	0	509	623	0	486	39	8	
7	0	0	0	0	510	628	0	481	39	8	
8	0	0	0	0	504	637	0	480	39	8	
9	0	0	0	0	500	639	0	476	39	8	
10	0	0	0	0	508	633	0	475	39	8	
11	0	0	0	0	504	622	0	479	39	8	
12	0	0	0	0	502	605	0	478	39	8	
13	0	0	0	0	499	587	0	485	39	8	
14	0	0	0	0	498	568	0	509	39	8	
15	0	0	0	0	503	562	0	521	39	8	
0	0	0	0	0	498	555	0	517	39	8	
1	0	0	0	0	499	544	0	505	39	8	
2	0	0	0	0	502	524	0	501	39	8	
3	0	0	0	0	507	508	0	496	39	8	
4	0	0	0	0	500	495	0	491	39	8	
5	0	0	0	0	506	479	0	492	39	8	
6	0	0	0	0	502	455	0	489	39	8	
7	0	0	0	0	510	439	0	491	39	8	
8	0	0	0	0	497	425	0	484	39	8	
9	0	0	0	0	506	419	0	481	39	8	
10	0	0	0	0	507	409	0	484	39	8	
11	0	0	0	0	512	392	0	482	39	8	
12	0	0	0	0	504	382	0	484	39	8	
13	0	0	0	0	499	370	0	484	39	8	
14	0	0	0	0	505	363	0	484	39	8	
15	0	0	0	0	496	363	0	486	39	8	
0	0	0	0	0	495	366	0	480	39	8	
1	0	0	0	0	502	362	0	479	39	8	
2	0	0	0	0	502	357	0	477	39	8	
3	0	0	0	0	499	356	0	478	39	8	
4	0	0	0	0	501	359	0	482	39	8	
5	0	0	0	0	494	358	0	482	39	8	
6	0	0	0	0	506	366	0	487	39	8	
7	0	0	0	0	507	373	0	484	39	8	
8	0	0	0	0	508	377	0	482	39	8	
9	0	0	0	0	504	379	0	482	39	8	
10	0	0	0	0	508	386	0	489	39	8	
11	0	0	0	0	498	387	0	517	39	8	
12	0	0	0	0	510	390	0	534	39	8	
13	0	0	0	0	513	387	0	550	39	8	
14	0	0	0	0	502	387	0	560	39	8	
15	0	0	0	0	504	388	0	558	39	8	
0	0	0	0	0	500	395	0	569	39	8	
1	0	0	0	0	505	405	0	565	39	8	
2	0	0	0	0	502	417	0	568	39	8	
3	0	0	0	0	496	427	0	572	39	8	
4	0	0	0	0	500	436	0	568	39	8	
5	0	0	0	0	504	447	0	575	39	8	
6	0	0	0	0	503	452	0	568	39	8	
7	0	0	0	0	500	462	0	569	39	8	
8	0	0	0	0	500	475	0	575	39	8	
9	0	0	0	0	504	482	0	569	39	8	
10	0	0	0	0	506	488	0	576	39	8	
11	0	0	0	0	508	493	0	566	39	8	
12	0	0	0	0	505	497	0	567	39	8	
13	0	0	0	0	508	504	0	574	38	8	
14	0	0	0	0	501	512	0	561	39	8	
15	0	0	0	0	507	518	0	568	39	8	
0	0	0	0	0	506	515	0	563	39	8	
1	0	0	0	0	504	527	0	554	39	8	
2	0	0	0	0	497	541	0	541	39	8	
3	0	0	0	0	495	548	0	525	39	8	
4	0	0	0	0	502	547	0	512	39	8	
5	0	0	0	0	504	543	0	503	39	8	
6	0	0	0	0	508	544	0	496	39	8	
7	0	0	0	0	505	547	0	493	39	8	
8	0	0	0	0	504	548	0	491	39	8	
9	0	0	0	0	513	547	0	491	39	8	
10	0	0	0	0	506	536	0	490	39	8	
11	0	0	0	0	506	532	0	488	39	8	
12	0	0	0	0	503	535	0	507	39	8	
13	0	0	0	0	501	541	0	522	38	8	
14	0	0	0	0	499	547	0	527	39	8	
15	0	0	0	0	503	562	0	522	39	8	
0	0	0	0	0	499	574	0	512	39	8	
1	0	0	0	0	498	576	0	516	39	8	
2	0	0	0	0	496	574	0	532	39	8	
3	0	0	0	0	497	564	0	534	39	8	
4	0	0	0	0	507	557	0	527	39	8	
5	0	0	0	0	504	546	0	516	39	8	
6	0	0	0	0	500	551	0	510	39	8	
7	0	0	0	0	506	565	0	503	39	8	
8	0	0	0	0	505	570	0	503	39	9	
9	0	0	0	0	503	568	0	519	39	8	
10	0	0	0	0	512	565	0	528	39	8	
11	0	0	0	0	499	566	0	528	39	8	
12	0	0	0	0	503	567	0	523	39	8	
13	0	0	0	0	504	567	0	523	39	8	
14	0	0	0	0	506	568	0	515	39	8	
15	0	0	0	0	505	567	0	524	39	8	
0	0	0	0	0	502	563	0	535	39	8	
1	0	0	0	0	498	557	0	530	39	8	
2	0	0	0	0	501	548	0	520	39	8	
3	0	0	0	0	505	548	0	509	39	8	
4	0	0	0	0	506	551	0	501	39	8	
5	0	0	0	0	506	556	0	497	39	8	
6	0	0	0	0	507	555	0	492	39	8	
7	0	0	0	0	502	551	0	491	39	8	
8	0	0	0	0	502	556	0	488	39	8	
9	0	0	0	0	507	559	0	502	39	8	
10	0	0	0	0	503	560	0	524	39	8	
11	0	0	0	0	510	561	0	527	39	8	
12	0	0	0	0	502	566	0	522	39	8	
13	0	0	0	0	504	567	0	516	39	8	
14	0	0	0	0	504	572	0	507	39	8	
15	0	0	0	0	515	573	0	514	39	8	
0	0	0	0	0	498	568	0	526	39	8	
1	0	0	0	0	500	568	0	524	39	8	
2	0	0	0	0	496	566	0	519	39	8	
3	0	0	0	0	500	562	0	512	39	8	
4	0	0	0	0	502	565	0	508	39	8	
5	0	0	0	0	504	569	0	505	39	8	
6	0	0	0	0	498	574	0	503	39	8	
7	0	0	0	0	502	572	0	501	39	8	
8	0	0	0	0	507	567	0	497	39	8	
9	0	0	0	0	496	568	0	507	39	8	
10	0	0	0	0	497	567	0	531	39	8	
11	0	0	0	0	504	556	0	537	39	8	
12	0	0	0	0	516	550	0	534	39	8	
13	0	0	0	0	510	556	0	536	39	8	
14	0	0	0	0	501	560	0	532	39	8	
15	0	0	0	0	512	556	0	531	39	8	
0	0	0	0	0	503	553	0	550	39	8	
1	0	0	0	0	502	547	0	553	39	8	
2	0	0	0	0	498	550	0	542	39	8	
3	0	0	0	0	504	551	0	531	39	8	
4	0	0	0	0	505	540	0	522	39	8	
5	0	0	0	0	499	531	0	515	39	8	
6	0	0	0	0	508	537	0	511	39	8	
7	0	0	0	0	508	552	0	505	39	8	
8	0	0	0	0	499	561	0	514	39	8	
9	0	0	0	0	500	560	0	531	39	8	
10	0	0	0	0	503	563	0	533	39	8	
11	0	0	0	0	500	575	0	529	39	8	
12	0	0	0	0	510	580	0	522	39	8	
13	0	0	0	0	509	577	0	517	39	8	
14	0	0	0	0	499	569	0	513	39	8	
15	0	0	0	0	502	564	0	513	39	8	
0	0	0	0	0	507	567	0	512	39	8	
1	0	0	0	0	509	570	0	527	39	8	
2	0	0	0	0	497	568	0	548	39	8	
3	0	0	0	0	504	551	0	549	39	8	
4	0	0	0	0	504	538	0	542	39	8	
5	0	0	0	0	500	542	0	532	39	8	
6	0	0	0	0	505	551	0	521	39	8	
7	0	0	0	0	505	561	0	527	39	8	
8	0	0	0	0	504	574	0	540	39	8	
9	0	0	0	0	495	579	0	539	39	8	
10	0	0	0	0	504	580	0	553	39	8	
11	0	0	0	0	513	578	0	559	39	8	
12	0	0	0	0	503	580	0	551	39	8	
13	0	0	0	0	506	577	0	546	39	8	
14	0	0	0	0	503	578	0	541	39	8	
15	0	0	0	0	504	575	0	538	39	8	
0	0	0	0	0	497	571	0	543	39	8	
1	0	0	0	0	515	558	0	557	39	8	
2	0	0	0	0	505	559	0	555	39	8	
3	0	0	0	0	496	572	0	544	39	9	
4	0	0	0	0	494	583	0	533	39	8	
5	0	0	0	0	509	588	0	521	39	8	
6	0	0	0	0	505	593	0	515	39	8	
7	0	0	0	0	504	592	0	510	39	8	
8	0	0	0	0	502	588	0	507	39	8	
9	0	0	0	0	503	591	0	504	39	8	
10	0	0	0	0	503	598	0	520	39	8	
11	0	0	0	0	509	602	0	538	39	8	
12	0	0	0	0	507	603	0	540	39	8	
13	0	0	0	0	503	605	0	536	39	8	
14	0	0	0	0	501	604	0	548	39	8	
15	0	0	0	0	506	603	0	549	39	8	
0	0	0	0	0	502	601	0	537	39	8	
1	0	0	0	0	503	603	0	527	39	8	
2	0	0	0	0	505	609	0	516	39	8	
3	0	0	0	0	502	608	0	507	39	8	
4	0	0	0	0	500	603	0	511	39	8	
5	0	0	0	0	502	600	0	497	39	8	
6	0	0	0	0	506	606	0	494	39	8	
7	0	0	0	0	503	612	0	496	39	8	
8	0	0	0	0	506	615	0	495	39	8	
9	0	0	0	0	507	613	0	513	39	8	
10	0	0	0	0	498	607	0	533	39	8	
11	0	0	0	0	504	600	0	536	39	8	
12	0	0	0	0	496	599	0	532	39	9	
13	0	0	0	0	505	599	0	535	39	8	
14	0	0	0	0	504	598	0	527	39	8	
15	0	0	0	0	504	600	0	529	39	8	
0	0	0	0	0	502	597	0	542	39	8	
1	0	0	0	0	505	596	0	539	39	8	
2	0	0	0	0	497	595	0	528	39	8	
3	0	0	0	0	516	584	0	514	39	8	
4	0	0	0	0	503	581	0	507	39	8	
5	0	0	0	0	500	581	0	499	39	8	
6	0	0	0	0	506	584	0	497	39	8	
7	0	0	0	0	505	590	0	490	39	8	
8	0	0	0	0	500	598	0	487	39	8	
9	0	0	0	0	498	598	0	500	39	8	
10	0	0	0	0	502	597	0	523	39	8	
11	0	0	0	0	506	600	0	530	39	8	
12	0	0	0	0	504	596	0	524	39	8	
13	0	0	0	0	511	599	0	513	39	9	
14	0	0	0	0	496	611	0	508	39	8	
15	0	0	0	0	508	606	0	507	39	8	
0	0	0	0	0	504	595	0	523	39	8	
1	0	0	0	0	506	592	0	523	39	8	
2	0	0	0	0	504	579	0	514	39	8	
3	0	0	0	0	506	569	0	508	39	8	
4	0	0	0	0	499	561	0	500	39	8	
5	0	0	0	0	496	557	0	497	39	9	
6	0	0	0	0	498	553	0	495	39	8	
7	0	0	0	0	497	550	0	492	39	8	
8	0	0	0	0	505	559	0	502	39	8	
9	0	0	0	0	507	563	0	516	39	8	
10	0	0	0	0	499	560	0	520	39	8	
11	0	0	0	0	504	555	0	516	39	8	
12	0	0	0	0	500	561	0	520	39	8	
13	0	0	0	0	504	562	0	518	39	8	
14	0	0	0	0	503	557	0	511	39	8	
15	0	0	0	0	509	544	0	506	39	8	
0	0	0	0	0	502	533	0	499	39	8	
1	0	0	0	0	509	526	0	496	39	8	
2	0	0	0	0	499	524	0	504	39	8	
3	0	0	0	0	502	525	0	524	39	8	
4	0	0	0	0	505	522	0	529	39	8	
5	0	0	0	0	503	508	0	523	39	8	
6	0	0	0	0	500	495	0	513	39	9	
7	0	0	0	0	499	499	0	506	39	8	
8	0	0	0	0	508	500	0	501	39	8	
9	0	0	0	0	506	502	0	499	39	8	
10	0	0	0	0	500	496	0	518	39	8	
11	0	0	0	0	498	487	0	527	39	8	
12	0	0	0	0	503	482	0	536	39	8	
13	0	0	0	0	504	482	0	517	39	8	
14	0	0	0	0	502	486	0	509	39	9	
15	0	0	0	0	509	487	0	504	39	8	
0	0	0	0	0	506	476	0	515	39	8	
1	0	0	0	0	502	470	0	534	39	8	
2	0	0	0	0	509	471	0	527	39	8	
3	0	0	0	0	499	468	0	521	39	8	
4	0	0	0	0	499	459	0	512	39	8	
5	0	0	0	0	506	460	0	504	38	8	
6	0	0	0	0	508	465	0	500	39	8	
7	0	0	0	0	500	465	0	496	39	8	
8	0	0	0	0	503	455	0	497	39	8	
9	0	0	0	0	508	455	0	493	39	8	
10	0	0	0	0	500	462	0	508	39	8	
11	0	0	0	0	501	464	0	526	39	8	
12	0	0	0	0	503	466	0	526	39	8	
13	0	0	0	0	499	468	0	524	39	8	
14	0	0	0	0	506	461	0	537	39	8	
15	0	0	0	0	504	458	0	541	39	9	
0	0	0	0	0	496	460	0	534	39	8	
1	0	0	0	0	496	460	0	522	39	8	
2	0	0	0	0	504	454	0	511	39	8	
3	0	0	0	0	513	450	0	503	39	8	
4	0	0	0	0	507	452	0	496	39	8	
5	0	0	0	0	508	451	0	494	39	8	
6	0	0	0	0	500	448	0	491	39	8	
7	0	0	0	0	504	451	0	488	39	9	
8	0	0	0	0	497	457	0	486	39	8	
9	0	0	0	0	500	457	0	502	39	8	
10	0	0	0	0	505	458	0	526	39	8	
11	0	0	0	0	504	441	0	527	39	8	
12	0	0	0	0	508	439	0	521	39	8	
13	0	0	0	0	502	445	0	513	39	8	
14	0	0	0	0	500	452	0	504	39	8	
15	0	0	0	0	500	454	0	510	39	8	
0	0	0	0	0	506	455	0	521	39	8	
1	0	0	0	0	501	456	0	518	39	8	
2	0	0	0	0	501	448	0	509	39	8	
3	0	0	0	0	505	445	0	502	39	8	
4	0	0	0	0	499	437	0	498	39	8	
5	0	0	0	0	504	428	0	493	39	8	
6	0	0	0	0	503	423	0	491	39	8	
7	0	0	0	0	505	425	0	489	39	8	
8	0	0	0	0	504	422	0	488	39	9	
9	0	0	0	0	504	418	0	517	39	8	
10	0	0	0	0	499	422	0	523	39	8	
11	0	0	0	0	504	434	0	529	39	8	
12	0	0	0	0	501	451	0	525	39	8	
13	0	0	0	0	508	461	0	526	39	8	
14	0	0	0	0	503	463	0	537	39	8	
15	0	0	0	0	500	460	0	512	39	8	
0	0	0	0	0	507	454	0	504	39	9	
1	0	0	0	0	505	445	0	498	39	8	
2	0	0	0	0	501	448	0	512	39	8	
3	0	0	0	0	509	454	0	528	39	8	
4	0	0	0	0	500	454	0	528	39	8	
5	0	0	0	0	504	454	0	524	39	8	
6	0	0	0	0	507	457	0	537	39	8	
7	0	0	0	0	504	463	0	540	39	8	
8	0	0	0	0	504	467	0	530	39	8	
9	0	0	0	0	496	470	0	520	39	8	
10	0	0	0	0	504	470	0	512	39	8	
11	0	0	0	0	501	465	0	505	39	8	
12	0	0	0	0	506	460	0	499	39	8	
13	0	0	0	0	499	464	0	497	39	8	
14	0	0	0	0	497	469	0	497	39	8	
15	0	0	0	0	498	466	0	497	39	8	
0	0	0	0	0	503	467	0	495	39	8	
1	0	0	0	0	511	466	0	512	39	9	
2	0	0	0	0	502	466	0	532	39	8	
3	0	0	0	0	512	462	0	536	39	8	
4	0	0	0	0	506	451	0	527	39	8	
5	0	0	0	0	498	443	0	519	39	8	
6	0	0	0	0	505	443	0	509	39	8	
7	0	0	0	0	513	446	0	513	39	8	
8	0	0	0	0	505	448	0	526	39	8	
9	0	0	0	0	499	454	0	524	39	9	
10	0	0	0	0	506	458	0	517	39	8	
11	0	0	0	0	503	462	0	523	39	8	
12	0	0	0	0	499	463	0	520	39	8	
13	0	0	0	0	503	465	0	515	39	8	
14	0	0	0	0	505	459	0	527	39	8	
15	0	0	0	0	499	455	0	504	39	8	
0	0	0	0	0	502	451	0	499	39	8	
1	0	0	0	0	503	454	0	497	39	8	
2	0	0	0	0	505	463	0	502	39	8	
3	0	0	0	0	512	470	0	527	39	8	
4	0	0	0	0	511	475	0	536	39	8	
5	0	0	0	0	505	478	0	532	39	8	
6	0	0	0	0	504	480	0	534	39	8	
7	0	0	0	0	501	482	0	513	39	8	
8	0	0	0	0	505	481	0	509	39	8	
9	0	0	0	0	497	483	0	524	39	8	
10	0	0	0	0	500	483	0	532	39	9	
11	0	0	0	0	498	491	0	529	39	8	
12	0	0	0	0	509	496	0	520	39	8	
13	0	0	0	0	499	491	0	512	39	8	
14	0	0	0	0	499	487	0	505	39	8	
15	0	0	0	0	511	487	0	497	39	8	
0	0	0	0	0	503	490	0	503	39	8	
1	0	0	0	0	495	486	0	519	39	8	
2	0	0	0	0	503	480	0	521	39	9	
3	0	0	0	0	510	477	0	516	39	8	
4	0	0	0	0	500	471	0	508	39	8	
5	0	0	0	0	501	469	0	502	39	8	
6	0	0	0	0	505	472	0	503	39	8	
7	0	0	0	0	502	468	0	497	39	8	
8	0	0	0	0	504	467	0	494	39	8	
9	0	0	0	0	503	469	0	509	39	8	
10	0	0	0	0	510	464	0	530	39	8	
11	0	0	0	0	500	457	0	531	39	8	
12	0	0	0	0	499	453	0	527	39	8	
13	0	0	0	0	505	462	0	528	39	8	
14	0	0	0	0	503	478	0	522	39	8	
15	0	0	0	0	505	486	0	513	39	8	
0	0	0	0	0	503	490	0	504	39	8	
1	0	0	0	0	503	489	0	499	39	8	
2	0	0	0	0	498	487	0	493	39	8	
3	0	0	0	0	507	490	0	489	39	9	
4	0	0	0	0	502	494	0	489	39	8	
5	0	0	0	0	501	497	0	487	39	8	
6	0	0	0	0	508	500	0	487	39	8	
7	0	0	0	0	510	499	0	482	39	8	
8	0	0	0	0	511	490	0	478	39	8	
9	0	0	0	0	505	483	0	476	39	8	
10	0	0	0	0	504	481	0	476	39	8	
11	0	0	0	0	499	483	0	478	39	9	
12	0	0	0	0	499	486	0	477	39	8	
13	0	0	0	0	507	486	0	477	38	8	
14	0	0	0	0	503	486	0	479	39	8	
15	0	0	0	0	508	480	0	475	39	8	
0	0	0	0	0	494	476	0	475	39	8	
1	0	0	0	0	499	481	0	470	39	8	
2	0	0	0	0	505	491	0	475	39	8	
3	0	0	0	0	502	504	0	472	39	8	
4	0	0	0	0	511	505	0	471	39	8	
5	0	0	0	0	507	501	0	476	39	8	
6	0	0	0	0	506	503	0	476	39	8	
7	0	0	0	0	501	505	0	475	39	8	
8	0	0	0	0	498	507	0	472	39	8	
9	0	0	0	0	503	504	0	467	39	8	
10	0	0	0	0	506	498	0	471	39	8	
11	0	0	0	0	501	493	0	472	39	8	
12	0	0	0	0	503	487	0	475	39	9	
13	0	0	0	0	499	489	0	480	39	8	
14	0	0	0	0	504	489	0	487	39	8	
15	0	0	0	0	506	491	0	513	39	8	
0	0	0	0	0	504	492	0	517	39	8	
1	0	0	0	0	511	489	0	512	39	8	
2	0	0	0	0	502	492	0	505	39	8	
3	0	0	0	0	502	495	0	497	39	8	
4	0	0	0	0	498	496	0	503	39	9	
5	0	0	0	0	504	498	0	491	39	8	
6	0	0	0	0	503	491	0	486	39	8	
7	0	0	0	0	499	484	0	486	39	8	
8	0	0	0	0	507	488	0	478	39	8	
9	0	0	0	0	497	496	0	476	39	8	
10	0	0	0	0	507	499	0	473	39	8	
11	0	0	0	0	506	507	0	473	39	8	
12	0	0	0	0	503	511	0	478	39	8	
13	0	0	0	0	503	508	0	480	39	8	
14	0	0	0	0	506	512	0	485	39	8	
15	0	0	0	0	508	513	0	485	39	8	
0	0	0	0	0	509	506	0	483	39	8	
1	0	0	0	0	505	504	0	483	39	8	
2	0	0	0	0	501	502	0	482	39	8	
3	0	0	0	0	502	494	0	486	39	8	
4	0	0	0	0	494	486	0	486	39	8	
5	0	0	0	0	507	484	0	486	39	9	
6	0	0	0	0	504	487	0	489	39	8	
7	0	0	0	0	499	486	0	487	39	8	
8	0	0	0	0	497	489	0	489	39	8	
9	0	0	0	0	495	496	0	483	39	8	
10	0	0	0	0	505	498	0	481	39	8	
11	0	0	0	0	511	495	0	487	39	8	
12	0	0	0	0	505	495	0	489	39	8	
13	0	0	0	0	503	506	0	498	39	9	
14	0	0	0	0	496	512	0	523	39	8	
15	0	0	0	0	505	511	0	536	39	8	
0	0	0	0	0	499	515	0	532	39	8	
1	0	0	0	0	508	515	0	519	39	8	
2	0	0	0	0	498	515	0	511	39	8	
3	0	0	0	0	501	504	0	504	39	8	
4	0	0	0	0	504	495	0	499	39	8	
5	0	0	0	0	506	497	0	510	39	8	
6	0	0	0	0	506	503	0	531	39	8	
7	0	0	0	0	503	504	0	536	39	8	
8	0	0	0	0	504	502	0	552	39	8	
9	0	0	0	0	510	498	0	556	39	8	
10	0	0	0	0	507	499	0	561	39	8	
11	0	0	0	0	495	496	0	573	39	8	
12	0	0	0	0	504	499	0	571	39	8	
13	0	0	0	0	508	506	0	579	39	8	
14	0	0	0	0	504	512	0	575	39	9	
15	0	0	0	0	508	510	0	572	39	8	
0	0	0	0	0	502	500	0	579	39	8	
1	0	0	0	0	500	504	0	575	39	8	
2	0	0	0	0	504	506	0	579	39	8	
3	0	0	0	0	503	508	0	574	39	8	
4	0	0	0	0	506	509	0	576	39	8	
5	0	0	0	0	498	507	0	577	39	8	
6	0	0	0	0	505	500	0	570	39	9	
7	0	0	0	0	510	498	0	577	39	8	
8	0	0	0	0	509	497	0	577	39	8	
9	0	0	0	0	508	499	0	576	39	8	
10	0	0	0	0	507	503	0	581	39	8	
11	0	0	0	0	500	504	0	572	39	8	
12	0	0	0	0	501	500	0	577	39	8	
13	0	0	0	0	505	497	0	577	39	8	
14	0	0	0	0	502	503	0	574	39	8	
15	0	0	0	0	502	508	0	576	39	8	
0	0	0	0	0	512	507	0	563	39	8	
1	0	0	0	0	505	507	0	556	39	8	
2	0	0	0	0	507	508	0	539	39	8	
3	0	0	0	0	507	508	0	527	39	8	
4	0	0	0	0	504	512	0	517	39	8	
5	0	0	0	0	496	508	0	510	39	8	
6	0	0	0	0	503	513	0	505	39	8	
7	0	0	0	0	507	528	0	502	39	9	
8	0	0	0	0	508	540	0	510	39	8	
9	0	0	0	0	505	538	0	503	39	8	
10	0	0	0	0	504	531	0	504	39	8	
11	0	0	0	0	497	521	0	504	39	8	
12	0	0	0	0	502	515	0	522	39	8	
13	0	0	0	0	510	511	0	540	39	8	
14	0	0	0	0	510	512	0	541	39	8	
15	0	0	0	0	502	512	0	539	39	9	
0	0	0	0	0	505	512	0	551	39	8	
1	0	0	0	0	505	511	0	557	39	8	
2	0	0	0	0	503	512	0	551	39	8	
3	0	0	0	0	494	510	0	540	39	8	
4	0	0	0	0	500	504	0	530	39	8	
5	0	0	0	0	505	508	0	521	39	8	
6	0	0	0	0	498	517	0	514	39	8	
7	0	0	0	0	501	524	0	512	39	8	
8	0	0	0	0	504	523	0	506	39	8	
9	0	0	0	0	504	521	0	519	39	8	
10	0	0	0	0	506	518	0	500	39	8	
11	0	0	0	0	504	514	0	499	39	8	
12	0	0	0	0	501	513	0	503	39	8	
13	0	0	0	0	506	510	0	502	39	8	
14	0	0	0	0	506	510	0	504	39	8	
15	0	0	0	0	502	509	0	504	39	8	
0	0	0	0	0	511	505	0	501	39	9	
1	0	0	0	0	502	508	0	498	39	8	
2	0	0	0	0	504	513	0	495	39	8	
3	0	0	0	0	499	519	0	498	39	8	
4	0	0	0	0	500	526	0	498	39	8	
5	0	0	0	0	504	521	0	498	39	8	
6	0	0	0	0	497	523	0	500	39	8	
7	0	0	0	0	495	522	0	498	39	8	
8	0	0	0	0	508	519	0	494	39	9	
9	0	0	0	0	509	512	0	488	39	8	
10	0	0	0	0	506	507	0	487	39	8	
11	0	0	0	0	509	499	0	490	39	8	
12	0	0	0	0	498	491	0	504	39	8	
13	0	0	0	0	499	491	0	525	39	8	
14	0	0	0	0	504	489	0	532	39	8	
15	0	0	0	0	510	486	0	525	39	8	
0	0	0	0	0	504	479	0	514	39	8	
1	0	0	0	0	507	478	0	502	39	8	
2	0	0	0	0	489	479	0	498	39	8	
3	0	0	0	0	503	480	0	498	39	8	
4	0	0	0	0	507	482	0	516	39	8	
5	0	0	0	0	503	490	0	539	39	8	
6	0	0	0	0	504	496	0	547	39	8	
7	0	0	0	0	499	495	0	564	39	8	
8	0	0	0	0	502	499	0	565	39	8	
9	0	0	0	0	509	507	0	572	39	9	
10	0	0	0	0	505	507	0	576	39	8	
11	0	0	0	0	508	508	0	570	39	8	
12	0	0	0	0	499	507	0	579	39	8	
13	0	0	0	0	504	498	0	576	39	8	
14	0	0	0	0	502	493	0	579	39	8	
15	0	0	0	0	508	494	0	576	39	8	
0	0	0	0	0	508	496	0	565	39	8	
1	0	0	0	0	506	498	0	554	39	9	
2	0	0	0	0	500	497	0	547	39	8	
3	0	0	0	0	499	498	0	527	39	8	
4	0	0	0	0	504	504	0	518	39	8	
5	0	0	0	0	506	503	0	512	39	8	
6	0	0	0	0	497	500	0	508	39	8	
7	0	0	0	0	506	503	0	514	39	8	
8	0	0	0	0	500	509	0	501	39	8	
9	0	0	0	0	504	510	0	500	39	8	
10	0	0	0	0	504	506	0	501	39	8	
11	0	0	0	0	502	501	0	505	39	8	
12	0	0	0	0	502	500	0	528	39	8	
13	0	0	0	0	510	496	0	544	39	8	
14	0	0	0	0	509	492	0	555	39	8	
15	0	0	0	0	494	490	0	568	39	8	
0	0	0	0	0	502	487	0	561	39	8	
1	0	0	0	0	511	483	0	547	39	8	
2	0	0	0	0	502	480	0	531	39	9	
3	0	0	0	0	501	481	0	520	39	8	
4	0	0	0	0	504	484	0	513	39	8	
5	0	0	0	0	502	486	0	509	39	8	
6	0	0	0	0	509	486	0	525	39	8	
7	0	0	0	0	507	488	0	504	39	8	
8	0	0	0	0	500	490	0	515	39	8	
9	0	0	0	0	495	491	0	533	39	8	
10	0	0	0	0	505	489	0	536	39	9	
11	0	0	0	0	514	489	0	532	39	8	
12	0	0	0	0	506	493	0	536	39	8	
13	0	0	0	0	505	497	0	532	39	8	
14	0	0	0	0	501	494	0	526	39	8	
15	0	0	0	0	494	496	0	519	39	8	
0	0	0	0	0	510	499	0	513	39	8	
1	0	0	0	0	508	502	0	508	39	8	
2	0	0	0	0	504	502	0	517	39	8	
3	0	0	0	0	500	503	0	539	39	8	
4	0	0	0	0	502	504	0	544	39	8	
5	0	0	0	0	501	500	0	537	39	8	
6	0	0	0	0	504	501	0	527	39	8	
7	0	0	0	0	501	499	0	521	39	8	
8	0	0	0	0	505	496	0	520	39	8	
9	0	0	0	0	500	501	0	542	39	8	
10	0	0	0	0	505	502	0	546	39	8	
11	0	0	0	0	507	502	0	539	39	9	
12	0	0	0	0	508	505	0	531	39	8	
13	0	0	0	0	497	514	0	522	39	8	
14	0	0	0	0	494	517	0	532	39	8	
15	0	0	0	0	502	517	0	512	39	8	
0	0	0	0	0	505	512	0	524	39	8	
1	0	0	0	0	514	513	0	535	39	8	
2	0	0	0	0	508	520	0	534	39	8	
3	0	0	0	0	502	527	0	533	39	9	
4	0	0	0	0	502	529	0	521	39	8	
5	0	0	0	0	510	528	0	512	39	8	
6	0	0	0	0	496	531	0	510	39	8	
7	0	0	0	0	501	538	0	507	39	8	
8	0	0	0	0	504	546	0	508	39	8	
9	0	0	0	0	508	550	0	526	39	8	
10	0	0	0	0	499	551	0	540	39	8	
11	0	0	0	0	505	560	0	539	39	8	
12	0	0	0	0	500	568	0	537	39	8	
13	0	0	0	0	501	575	0	538	39	8	
14	0	0	0	0	498	583	0	532	39	8	
15	0	0	0	0	504	592	0	541	39	8	
0	0	0	0	0	506	601	0	550	39	8	
1	0	0	0	0	505	609	0	545	39	8	
2	0	0	0	0	508	611	0	535	39	8	
3	0	0	0	0	502	617	0	523	39	8	
4	0	0	0	0	508	620	0	511	39	9	
5	0	0	0	0	503	615	0	505	39	8	
6	0	0	0	0	502	607	0	500	39	8	
7	0	0	0	0	503	604	0	497	39	8	
8	0	0	0	0	505	600	0	495	39	8	
9	0	0	0	0	513	591	0	510	39	8	
10	0	0	0	0	495	579	0	531	39	8	
11	0	0	0	0	500	572	0	532	39	8	
12	0	0	0	0	497	561	0	527	39	9	
13	0	0	0	0	503	537	0	517	39	8	
14	0	0	0	0	502	508	0	510	39	8	
15	0	0	0	0	505	499	0	516	39	8	
0	0	0	0	0	504	503	0	527	39	8	
1	0	0	0	0	507	508	0	526	39	8	
2	0	0	0	0	504	500	0	519	39	8	
3	0	0	0	0	508	486	0	510	39	8	
4	0	0	0	0	510	471	0	503	39	8	
5	0	0	0	0	500	451	0	497	39	8	
6	0	0	0	0	498	427	0	497	39	8	
7	0	0	0	0	500	409	0	495	39	8	
8	0	0	0	0	508	396	0	496	39	8	
9	0	0	0	0	503	385	0	508	39	8	
10	0	0	0	0	496	370	0	531	39	8	
11	0	0	0	0	504	350	0	536	39	8	
12	0	0	0	0	504	335	0	532	39	8	
13	0	0	0	0	501	327	0	534	39	9	
14	0	0	0	0	504	331	0	527	39	8	
15	0	0	0	0	508	344	0	522	39	8	
0	0	0	0	0	503	360	0	540	39	8	
1	0	0	0	0	506	370	0	541	39	8	
2	0	0	0	0	502	379	0	550	39	8	
3	0	0	0	0	508	384	0	557	39	8	
4	0	0	0	0	502	387	0	547	39	8	
5	0	0	0	0	505	392	0	536	38	9	
6	0	0	0	0	500	403	0	543	39	8	
7	0	0	0	0	506	414	0	542	39	8	
8	0	0	0	0	508	417	0	529	39	8	
9	0	0	0	0	499	426	0	516	39	8	
10	0	0	0	0	500	441	0	509	39	8	
11	0	0	0	0	499	442	0	503	39	8	
12	0	0	0	0	500	433	0	499	39	8	
13	0	0	0	0	497	433	0	495	39	8	
14	0	0	0	0	502	426	0	493	39	8	
15	0	0	0	0	506	425	0	493	39	8	
0	0	0	0	0	507	427	0	492	39	8	
1	0	0	0	0	503	431	0	508	39	8	
2	0	0	0	0	496	437	0	530	39	8	
3	0	0	0	0	506	443	0	531	39	8	
4	0	0	0	0	507	447	0	524	39	8	
5	0	0	0	0	505	453	0	516	39	8	
6	0	0	0	0	507	459	0	521	39	9	
7	0	0	0	0	495	464	0	512	39	8	
8	0	0	0	0	500	467	0	522	39	8	
9	0	0	0	0	501	476	0	519	39	8	
10	0	0	0	0	513	488	0	512	39	8	
11	0	0	0	0	507	503	0	516	39	8	
12	0	0	0	0	503	508	0	513	39	8	
13	0	0	0	0	504	512	0	507	39	8	
14	0	0	0	0	503	520	0	502	39	9	
15	0	0	0	0	506	526	0	499	39	8	
0	0	0	0	0	508	531	0	496	39	8	
1	0	0	0	0	503	540	0	495	39	8	
2	0	0	0	0	498	548	0	499	39	8	
3	0	0	0	0	501	555	0	523	39	8	
4	0	0	0	0	505	555	0	532	39	8	
5	0	0	0	0	507	552	0	529	39	8	
6	0	0	0	0	509	547	0	520	39	8	
7	0	0	0	0	507	547	0	512	39	8	
8	0	0	0	0	493	547	0	507	39	8	
9	0	0	0	0	501	542	0	523	39	8	
10	0	0	0	0	496	535	0	532	39	8	
11	0	0	0	0	499	532	0	528	39	8	
12	0	0	0	0	504	531	0	521	39	8	
13	0	0	0	0	499	539	0	513	38	8	
14	0	0	0	0	505	547	0	506	39	8	
15	0	0	0	0	506	553	0	500	39	9	
0	0	0	0	0	506	558	0	506	39	8	
1	0	0	0	0	505	560	0	520	39	8	
2	0	0	0	0	508	559	0	520	39	8	
3	0	0	0	0	511	555	0	514	39	8	
4	0	0	0	0	504	552	0	505	39	8	
5	0	0	0	0	503	562	0	499	39	8	
6	0	0	0	0	502	573	0	495	39	8	
7	0	0	0	0	505	569	0	492	39	9	
8	0	0	0	0	501	558	0	487	39	8	
9	0	0	0	0	508	554	0	503	39	8	
10	0	0	0	0	506	555	0	524	39	8	
11	0	0	0	0	504	555	0	528	39	8	
12	0	0	0	0	507	551	0	526	39	8	
13	0	0	0	0	507	547	0	526	38	8	
14	0	0	0	0	494	553	0	531	39	8	
15	0	0	0	0	500	554	0	525	39	8	
0	0	0	0	0	500	553	0	539	39	8	
1	0	0	0	0	500	555	0	539	39	8	
2	0	0	0	0	511	551	0	529	39	8	
3	0	0	0	0	512	554	0	519	39	8	
4	0	0	0	0	504	556	0	510	39	8	
5	0	0	0	0	499	539	0	502	38	8	
6	0	0	0	0	498	526	0	496	39	8	
7	0	0	0	0	500	531	0	493	39	8	
8	0	0	0	0	510	540	0	494	39	9	
9	0	0	0	0	499	543	0	502	39	8	
10	0	0	0	0	496	549	0	524	39	8	
11	0	0	0	0	502	560	0	530	39	8	
12	0	0	0	0	508	563	0	523	39	8	
13	0	0	0	0	506	569	0	512	38	8	
14	0	0	0	0	500	572	0	505	39	8	
15	0	0	0	0	497	576	0	503	39	8	
0	0	0	0	0	504	587	0	519	39	9	
1	0	0	0	0	506	594	0	518	39	8	
2	0	0	0	0	506	595	0	511	39	8	
3	0	0	0	0	507	587	0	508	39	8	
4	0	0	0	0	506	574	0	496	39	8	
5	0	0	0	0	499	569	0	492	38	8	
6	0	0	0	0	505	566	0	488	39	8	
7	0	0	0	0	509	562	0	483	39	8	
8	0	0	0	0	504	558	0	493	39	8	
9	0	0	0	0	498	550	0	508	39	8	
10	0	0	0	0	497	547	0	510	39	8	
11	0	0	0	0	504	559	0	504	39	8	
12	0	0	0	0	504	573	0	509	39	8	
13	0	0	0	0	508	583	0	505	39	8	
14	0	0	0	0	503	584	0	492	39	8	
15	0	0	0	0	502	581	0	485	39	8	
0	0	0	0	0	502	572	0	480	39	8	
1	0	0	0	0	502	563	0	477	39	9	
2	0	0	0	0	505	561	0	488	39	8	
3	0	0	0	0	501	561	0	509	39	8	
4	0	0	0	0	497	554	0	513	39	8	
5	0	0	0	0	505	545	0	508	39	8	
6	0	0	0	0	503	547	0	499	39	8	
7	0	0	0	0	507	555	0	495	39	8	
8	0	0	0	0	507	561	0	487	39	8	
9	0	0	0	0	509	560	0	486	39	9	
10	0	0	0	0	503	559	0	504	39	8	
11	0	0	0	0	503	561	0	516	39	8	
12	0	0	0	0	499	557	0	513	39	8	
13	0	0	0	0	499	556	0	507	39	8	
14	0	0	0	0	505	552	0	502	39	8	
15	0	0	0	0	501	553	0	491	39	8	
0	0	0	0	0	502	557	0	480	39	8	
1	0	0	0	0	500	572	0	474	39	8	
2	0	0	0	0	507	580	0	467	39	8	
3	0	0	0	0	501	583	0	470	39	8	
4	0	0	0	0	511	579	0	468	39	8	
5	0	0	0	0	506	582	0	466	39	8	
6	0	0	0	0	501	594	0	469	39	8	
7	0	0	0	0	502	598	0	464	39	8	
8	0	0	0	0	502	593	0	463	39	8	
9	0	0	0	0	507	581	0	460	39	8	
10	0	0	0	0	498	573	0	460	39	9	
11	0	0	0	0	501	573	0	461	39	8	
12	0	0	0	0	507	575	0	457	39	8	
13	0	0	0	0	511	577	0	463	39	8	
14	0	0	0	0	500	580	0	461	39	8	
15	0	0	0	0	503	589	0	461	39	8	
0	0	0	0	0	489	594	0	459	39	8	
1	0	0	0	0	500	592	0	455	39	8	
2	0	0	0	0	501	590	0	458	39	9	
3	0	0	0	0	505	591	0	459	39	8	
4	0	0	0	0	504	593	0	462	39	8	
5	0	0	0	0	505	596	0	472	39	8	
6	0	0	0	0	508	593	0	467	39	8	
7	0	0	0	0	504	587	0	473	39	8	
8	0	0	0	0	505	581	0	471	39	8	
9	0	0	0	0	504	577	0	486	39	8	
10	0	0	0	0	504	574	0	508	39	8	
11	0	0	0	0	504	576	0	510	39	8	
12	0	0	0	0	503	580	0	504	39	8	
13	0	0	0	0	504	583	0	497	39	8	
14	0	0	0	0	508	588	0	488	39	8	
15	0	0	0	0	503	594	0	492	39	8	
0	0	0	0	0	498	601	0	473	39	8	
1	0	0	0	0	501	615	0	468	39	8	
2	0	0	0	0	504	631	0	466	39	8	
3	0	0	0	0	503	639	0	466	39	9	
4	0	0	0	0	505	630	0	471	39	8	
5	0	0	0	0	505	605	0	473	39	8	
6	0	0	0	0	500	591	0	478	39	8	
7	0	0	0	0	506	583	0	475	39	8	
8	0	0	0	0	505	580	0	473	39	8	
9	0	0	0	0	501	574	0	473	39	8	
10	0	0	0	0	504	574	0	472	39	8	
11	0	0	0	0	504	573	0	476	39	9	
12	0	0	0	0	503	575	0	476	39	8	
13	0	0	0	0	508	581	0	476	38	8	
14	0	0	0	0	499	595	0	480	39	8	
15	0	0	0	0	504	601	0	478	39	8	
0	0	0	0	0	502	611	0	479	39	8	
1	0	0	0	0	499	623	0	473	39	8	
2	0	0	0	0	512	628	0	472	39	8	
3	0	0	0	0	502	621	0	488	39	8	
4	0	0	0	0	507	611	0	514	39	8	
5	0	0	0	0	492	608	0	524	39	8	
6	0	0	0	0	506	603	0	519	39	8	
7	0	0	0	0	498	598	0	507	39	8	
8	0	0	0	0	501	597	0	496	39	8	
9	0	0	0	0	501	593	0	483	39	8	
10	0	0	0	0	506	585	0	486	39	8	
11	0	0	0	0	503	586	0	478	39	8	
12	0	0	0	0	501	591	0	475	39	9	
13	0	0	0	0	501	585	0	478	39	8	
14	0	0	0	0	507	579	0	475	39	8	
15	0	0	0	0	501	581	0	479	39	8	
0	0	0	0	0	505	580	0	472	39	8	
1	0	0	0	0	508	576	0	469	39	8	
2	0	0	0	0	497	571	0	472	39	8	
3	0	0	0	0	504	567	0	481	39	8	
4	0	0	0	0	503	568	0	511	39	8	
5	0	0	0	0	507	571	0	523	39	8	
6	0	0	0	0	507	575	0	539	39	8	
7	0	0	0	0	493	575	0	556	39	8	
8	0	0	0	0	502	563	0	557	39	8	
9	0	0	0	0	503	545	0	567	39	8	
10	0	0	0	0	512	536	0	560	39	8	
11	0	0	0	0	507	536	0	560	39	8	
12	0	0	0	0	511	540	0	567	39	8	
13	0	0	0	0	501	543	0	560	39	8	
14	0	0	0	0	502	536	0	568	39	8	
15	0	0	0	0	499	527	0	563	39	8	
0	0	0	0	0	507	509	0	561	39	8	
1	0	0	0	0	504	501	0	559	39	8	
2	0	0	0	0	506	491	0	551	39	8	
3	0	0	0	0	502	478	0	561	39	8	
4	0	0	0	0	500	477	0	556	39	8	
5	0	0	0	0	504	479	0	557	39	9	
6	0	0	0	0	503	487	0	565	39	8	
7	0	0	0	0	505	493	0	560	39	8	
8	0	0	0	0	506	487	0	567	39	8	
9	0	0	0	0	508	483	0	556	39	8	
10	0	0	0	0	509	480	0	535	39	8	
11	0	0	0	0	509	480	0	518	39	8	
12	0	0	0	0	505	472	0	513	39	8	
13	0	0	0	0	496	457	0	529	39	8	
14	0	0	0	0	500	448	0	532	39	8	
15	0	0	0	0	495	453	0	542	39	8	
0	0	0	0	0	496	458	0	554	39	8	
1	0	0	0	0	499	462	0	552	39	8	
2	0	0	0	0	504	455	0	562	39	8	
3	0	0	0	0	499	461	0	555	39	8	
4	0	0	0	0	502	468	0	537	39	8	
5	0	0	0	0	506	468	0	522	39	8	
6	0	0	0	0	507	461	0	510	39	8	
7	0	0	0	0	511	455	0	503	39	8	
8	0	0	0	0	509	445	0	495	39	8	
9	0	0	0	0	507	438	0	508	39	8	
10	0	0	0	0	508	435	0	527	39	8	
11	0	0	0	0	501	434	0	526	39	8	
12	0	0	0	0	511	435	0	522	39	8	
13	0	0	0	0	506	435	0	536	38	8	
14	0	0	0	0	504	440	0	544	39	8	
15	0	0	0	0	496	444	0	552	39	8	
0	0	0	0	0	500	449	0	556	39	8	
1	0	0	0	0	498	449	0	542	39	8	
2	0	0	0	0	499	446	0	525	39	8	
3	0	0	0	0	506	444	0	509	39	8	
4	0	0	0	0	497	448	0	499	39	8	
5	0	0	0	0	504	450	0	491	39	8	
6	0	0	0	0	501	449	0	489	39	8	
7	0	0	0	0	512	446	0	484	39	8	
8	0	0	0	0	512	439	0	481	39	8	
9	0	0	0	0	505	433	0	491	39	8	
10	0	0	0	0	497	431	0	511	39	8	
11	0	0	0	0	501	435	0	516	39	8	
12	0	0	0	0	505	441	0	512	39	8	
13	0	0	0	0	511	442	0	503	39	8	
14	0	0	0	0	509	446	0	498	39	8	
15	0	0	0	0	504	454	0	497	39	8	
0	0	0	0	0	498	462	0	514	39	8	
1	0	0	0	0	497	468	0	519	39	8	
2	0	0	0	0	507	470	0	512	39	8	
3	0	0	0	0	504	473	0	507	39	8	
4	0	0	0	0	505	462	0	499	39	8	
5	0	0	0	0	499	455	0	496	39	8	
6	0	0	0	0	497	456	0	491	39	8	
7	0	0	0	0	503	455	0	488	39	8	
8	0	0	0	0	505	448	0	501	39	8	
9	0	0	0	0	505	449	0	516	39	8	
10	0	0	0	0	495	447	0	519	39	8	
11	0	0	0	0	508	458	0	515	39	8	
12	0	0	0	0	510	460	0	519	39	8	
13	0	0	0	0	515	468	0	518	39	8	
14	0	0	0	0	499	467	0	511	39	8	
15	0	0	0	0	500	460	0	506	39	8	
0	0	0	0	0	504	449	0	503	39	8	
1	0	0	0	0	499	438	0	500	39	8	
2	0	0	0	0	508	436	0	508	39	8	
3	0	0	0	0	506	436	0	529	39	8	
4	0	0	0	0	501	433	0	533	39	8	
5	0	0	0	0	505	429	0	530	39	8	
6	0	0	0	0	503	431	0	519	39	8	
7	0	0	0	0	497	437	0	512	39	8	
8	0	0	0	0	504	442	0	506	39	8	
9	0	0	0	0	498	450	0	505	39	8	
10	0	0	0	0	501	457	0	525	39	8	
11	0	0	0	0	508	459	0	537	39	8	
12	0	0	0	0	498	460	0	536	39	8	
13	0	0	0	0	505	471	0	529	39	8	
14	0	0	0	0	509	472	0	520	39	8	
15	0	0	0	0	503	468	0	514	39	8	
0	0	0	0	0	501	466	0	523	39	8	
1	0	0	0	0	503	470	0	531	39	8	
2	0	0	0	0	492	481	0	530	39	8	
3	0	0	0	0	509	483	0	523	39	8	
4	0	0	0	0	502	471	0	516	39	8	
5	0	0	0	0	507	465	0	508	39	8	
6	0	0	0	0	499	464	0	502	39	8	
7	0	0	0	0	502	467	0	500	39	8	
8	0	0	0	0	501	466	0	502	39	8	
9	0	0	0	0	505	462	0	520	39	8	
10	0	0	0	0	513	461	0	533	39	8	
11	0	0	0	0	513	465	0	529	39	8	
12	0	0	0	0	508	463	0	528	39	8	
13	0	0	0	0	499	466	0	529	39	8	
14	0	0	0	0	494	469	0	525	39	8	
15	0	0	0	0	505	461	0	533	39	8	
0	0	0	0	0	502	459	0	543	39	8	
1	0	0	0	0	501	460	0	540	39	8	
2	0	0	0	0	507	462	0	531	39	8	
3	0	0	0	0	503	472	0	536	39	8	
4	0	0	0	0	506	477	0	512	39	8	
5	0	0	0	0	495	476	0	507	39	8	
6	0	0	0	0	502	471	0	505	39	8	
7	0	0	0	0	498	468	0	502	39	8	
8	0	0	0	0	503	472	0	502	39	8	
9	0	0	0	0	505	476	0	516	39	8	
10	0	0	0	0	500	484	0	536	39	8	
11	0	0	0	0	500	486	0	538	39	8	
12	0	0	0	0	506	472	0	530	39	8	
13	0	0	0	0	502	460	0	521	39	8	
14	0	0	0	0	505	449	0	510	39	8	
15	0	0	0	0	509	451	0	516	39	8	
0	0	0	0	0	501	463	0	528	39	8	
1	0	0	0	0	499	472	0	525	39	8	
2	0	0	0	0	501	477	0	518	39	8	
3	0	0	0	0	506	473	0	509	39	8	
4	0	0	0	0	499	474	0	503	39	8	
5	0	0	0	0	510	479	0	499	39	8	
6	0	0	0	0	499	482	0	499	39	8	
7	0	0	0	0	506	486	0	501	39	8	
8	0	0	0	0	500	490	0	515	39	8	
9	0	0	0	0	497	486	0	530	39	8	
10	0	0	0	0	500	487	0	532	39	8	
11	0	0	0	0	504	507	0	531	39	8	
12	0	0	0	0	509	518	0	533	39	8	
13	0	0	0	0	506	517	0	528	39	8	
14	0	0	0	0	507	515	0	521	39	8	
15	0	0	0	0	503	511	0	514	39	8	
0	0	0	0	0	502	503	0	510	39	8	
1	0	0	0	0	509	494	0	511	39	8	
2	0	0	0	0	496	490	0	524	39	8	
3	0	0	0	0	506	490	0	543	39	8	
4	0	0	0	0	506	496	0	543	39	8	
5	0	0	0	0	509	496	0	537	39	8	
6	0	0	0	0	498	492	0	550	39	8	
7	0	0	0	0	512	484	0	556	39	8	
8	0	0	0	0	502	486	0	556	39	8	
9	0	0	0	0	496	491	0	563	39	8	
10	0	0	0	0	504	495	0	555	39	8	
11	0	0	0	0	506	502	0	540	39	8	
12	0	0	0	0	504	496	0	524	39	8	
13	0	0	0	0	503	490	0	514	39	8	
14	0	0	0	0	505	494	0	505	39	8	
15	0	0	0	0	499	501	0	499	39	8	
0	0	0	0	0	500	504	0	496	39	8	
1	0	0	0	0	505	504	0	509	39	8	
2	0	0	0	0	498	502	0	529	39	8	
3	0	0	0	0	505	501	0	529	39	8	
4	0	0	0	0	499	498	0	523	39	8	
5	0	0	0	0	503	497	0	516	39	8	
6	0	0	0	0	501	501	0	507	39	8	
7	0	0	0	0	499	504	0	512	39	8	
8	0	0	0	0	499	511	0	526	39	8	
9	0	0	0	0	499	517	0	521	39	8	
10	0	0	0	0	505	511	0	516	39	8	
11	0	0	0	0	502	509	0	518	39	8	
12	0	0	0	0	511	511	0	515	39	8	
13	0	0	0	0	506	511	0	510	39	8	
14	0	0	0	0	505	502	0	504	39	8	
15	0	0	0	0	505	496	0	501	39	8	
0	0	0	0	0	507	497	0	497	39	8	
1	0	0	0	0	503	495	0	496	39	8	
2	0	0	0	0	511	487	0	500	39	8	
3	0	0	0	0	499	479	0	523	39	8	
4	0	0	0	0	500	479	0	530	39	8	
5	0	0	0	0	498	491	0	524	39	8	
6	0	0	0	0	498	500	0	517	39	8	
7	0	0	0	0	504	503	0	508	39	8	
8	0	0	0	0	507	508	0	505	39	8	
9	0	0	0	0	506	515	0	530	39	8	
10	0	0	0	0	503	519	0	531	39	8	
11	0	0	0	0	500	518	0	538	39	8	
12	0	0	0	0	502	509	0	555	39	8	
13	0	0	0	0	507	505	0	555	39	8	
14	0	0	0	0	505	505	0	563	39	8	
15	0	0	0	0	507	509	0	556	39	8	
0	0	0	0	0	504	515	0	538	39	8	
1	0	0	0	0	498	515	0	520	39	8	
2	0	0	0	0	502	506	0	507	39	8	
3	0	0	0	0	502	495	0	500	39	8	
4	0	0	0	0	504	487	0	489	39	8	
5	0	0	0	0	495	492	0	486	39	8	
6	0	0	0	0	503	497	0	481	39	8	
7	0	0	0	0	504	508	0	481	39	8	
8	0	0	0	0	504	523	0	479	39	8	
9	0	0	0	0	509	520	0	495	39	8	
10	0	0	0	0	494	519	0	519	39	8	
11	0	0	0	0	494	515	0	521	39	8	
12	0	0	0	0	505	512	0	518	39	8	
13	0	0	0	0	505	511	0	518	39	8	
14	0	0	0	0	501	518	0	510	39	8	
15	0	0	0	0	504	520	0	515	39	8	
0	0	0	0	0	507	509	0	526	39	8	
1	0	0	0	0	508	504	0	524	39	8	
2	0	0	0	0	501	499	0	515	39	8	
3	0	0	0	0	508	492	0	504	39	8	
4	0	0	0	0	504	492	0	497	39	8	
5	0	0	0	0	501	492	0	491	39	8	
6	0	0	0	0	502	498	0	488	39	8	
7	0	0	0	0	499	498	0	484	39	8	
8	0	0	0	0	507	499	0	481	39	8	
9	0	0	0	0	506	507	0	494	39	8	
10	0	0	0	0	500	527	0	514	39	8	
11	0	0	0	0	501	542	0	519	39	8	
12	0	0	0	0	507	540	0	513	39	8	
13	0	0	0	0	504	533	0	502	39	8	
14	0	0	0	0	502	529	0	496	39	8	
15	0	0	0	0	505	528	0	495	39	8	
0	0	0	0	0	503	528	0	511	39	8	
1	0	0	0	0	502	535	0	516	39	8	
2	0	0	0	0	508	540	0	508	39	8	
3	0	0	0	0	507	536	0	502	39	8	
4	0	0	0	0	504	519	0	494	39	8	
5	0	0	0	0	503	502	0	489	39	8	
6	0	0	0	0	497	502	0	483	39	8	
7	0	0	0	0	500	509	0	479	39	8	
8	0	0	0	0	504	514	0	477	39	8	
9	0	0	0	0	511	514	0	470	39	8	
10	0	0	0	0	508	523	0	473	39	8	
11	0	0	0	0	503	529	0	512	39	8	
12	0	0	0	0	499	529	0	508	39	8	
13	0	0	0	0	501	541	0	506	39	8	
14	0	0	0	0	505	545	0	509	39	8	
15	0	0	0	0	500	546	0	527	39	8	
0	0	0	0	0	504	543	0	532	39	8	
1	0	0	0	0	507	529	0	524	39	8	
2	0	0	0	0	502	523	0	514	39	8	
3	0	0	0	0	499	521	0	504	39	8	
4	0	0	0	0	501	519	0	496	39	8	
5	0	0	0	0	508	517	0	488	39	8	
6	0	0	0	0	506	520	0	483	39	8	
7	0	0	0	0	509	526	0	481	39	8	
8	0	0	0	0	506	530	0	475	39	8	
9	0	0	0	0	499	531	0	475	39	8	
10	0	0	0	0	496	526	0	493	39	8	
11	0	0	0	0	502	524	0	506	39	8	
12	0	0	0	0	510	525	0	505	39	8	
13	0	0	0	0	496	526	0	501	39	8	
14	0	0	0	0	502	528	0	496	39	8	
15	0	0	0	0	506	523	0	490	39	8	
0	0	0	0	0	507	516	0	503	39	8	
1	0	0	0	0	501	510	0	511	39	8	
2	0	0	0	0	499	514	0	510	39	8	
3	0	0	0	0	506	523	0	507	39	8	
4	0	0	0	0	507	528	0	496	39	8	
5	0	0	0	0	508	529	0	490	39	8	
6	0	0	0	0	504	525	0	488	39	8	
7	0	0	0	0	498	515	0	480	39	8	
8	0	0	0	0	504	509	0	482	39	8	
9	0	0	0	0	501	506	0	500	39	8	
10	0	0	0	0	506	500	0	513	39	8	
11	0	0	0	0	505	498	0	512	39	8	
12	0	0	0	0	506	500	0	511	39	8	
13	0	0	0	0	503	507	0	513	38	8	
14	0	0	0	0	503	508	0	507	39	8	
15	0	0	0	0	505	508	0	515	39	8	
0	0	0	0	0	505	516	0	526	39	8	
1	0	0	0	0	506	516	0	520	39	8	
2	0	0	0	0	499	515	0	511	39	8	
3	0	0	0	0	505	519	0	501	39	8	
4	0	0	0	0	504	521	0	492	39	8	
5	0	0	0	0	505	511	0	488	39	8	
6	0	0	0	0	509	502	0	483	39	8	
7	0	0	0	0	497	499	0	484	39	8	
8	0	0	0	0	505	492	0	494	39	8	
9	0	0	0	0	507	492	0	497	39	8	
10	0	0	0	0	500	492	0	521	39	8	
11	0	0	0	0	505	491	0	523	39	8	
12	0	0	0	0	499	494	0	517	39	8	
13	0	0	0	0	493	494	0	507	39	8	
14	0	0	0	0	505	481	0	498	39	8	
15	0	0	0	0	499	480	0	502	39	8	
0	0	0	0	0	505	491	0	515	39	8	
1	0	0	0	0	505	495	0	511	39	8	
2	0	0	0	0	501	501	0	502	39	8	
3	0	0	0	0	505	510	0	495	39	8	
4	0	0	0	0	501	512	0	492	39	8	
5	0	0	0	0	498	509	0	487	39	8	
6	0	0	0	0	504	507	0	486	39	8	
7	0	0	0	0	512	503	0	483	39	8	
8	0	0	0	0	501	500	0	483	39	8	
9	0	0	0	0	508	505	0	496	39	8	
10	0	0	0	0	497	511	0	519	39	8	
11	0	0	0	0	504	504	0	526	39	8	
12	0	0	0	0	507	499	0	522	39	8	
13	0	0	0	0	502	503	0	525	39	8	
14	0	0	0	0	504	506	0	521	39	8	
15	0	0	0	0	502	504	0	509	39	8	
0	0	0	0	0	502	504	0	504	39	8	
1	0	0	0	0	502	505	0	497	39	8	
2	0	0	0	0	504	501	0	491	39	8	
3	0	0	0	0	504	506	0	492	39	8	
4	0	0	0	0	504	508	0	486	39	8	
5	0	0	0	0	497	511	0	489	39	8	
6	0	0	0	0	504	505	0	487	39	8	
7	0	0	0	0	516	495	0	484	39	8	
8	0	0	0	0	506	489	0	481	39	8	
9	0	0	0	0	500	483	0	476	39	8	
10	0	0	0	0	498	478	0	479	39	8	
11	0	0	0	0	507	484	0	480	39	8	
12	0	0	0	0	503	498	0	481	39	8	
13	0	0	0	0	502	511	0	484	39	8	
14	0	0	0	0	501	518	0	485	39	8	
15	0	0	0	0	504	522	0	488	39	8	
0	0	0	0	0	503	522	0	484	39	8	
1	0	0	0	0	497	520	0	480	39	8	
2	0	0	0	0	504	515	0	483	39	8	
3	0	0	0	0	512	502	0	483	39	8	
4	0	0	0	0	508	492	0	487	39	8	
5	0	0	0	0	499	492	0	489	39	8	
6	0	0	0	0	497	496	0	508	39	8	
7	0	0	0	0	507	502	0	527	39	8	
8	0	0	0	0	502	500	0	526	39	8	
9	0	0	0	0	499	501	0	517	39	8	
10	0	0	0	0	500	499	0	509	39	8	
11	0	0	0	0	506	492	0	502	39	8	
12	0	0	0	0	508	489	0	499	39	8	
13	0	0	0	0	506	486	0	496	39	8	
14	0	0	0	0	500	493	0	498	39	8	
15	0	0	0	0	504	503	0	496	39	8	
0	0	0	0	0	504	510	0	493	39	8	
1	0	0	0	0	502	515	0	491	39	8	
2	0	0	0	0	511	514	0	491	39	8	
3	0	0	0	0	500	511	0	495	39	8	
4	0	0	0	0	497	509	0	495	39	8	
5	0	0	0	0	503	512	0	493	39	8	
6	0	0	0	0	501	519	0	495	39	8	
7	0	0	0	0	503	523	0	493	39	8	
8	0	0	0	0	505	527	0	491	39	8	
9	0	0	0	0	500	535	0	487	39	8	
10	0	0	0	0	504	552	0	486	39	8	
11	0	0	0	0	508	564	0	489	39	8	
12	0	0	0	0	499	579	0	491	39	8	
13	0	0	0	0	506	592	0	494	39	8	
14	0	0	0	0	504	602	0	494	39	8	
15	0	0	0	0	502	604	0	491	39	8	
0	0	0	0	0	502	606	0	489	39	8	
1	0	0	0	0	504	611	0	481	39	8	
2	0	0	0	0	501	615	0	486	39	8	
3	0	0	0	0	501	619	0	510	39	8	
4	0	0	0	0	505	630	0	527	39	8	
5	0	0	0	0	513	640	0	529	39	8	
6	0	0	0	0	504	644	0	520	39	8	
7	0	0	0	0	505	643	0	508	39	8	
8	0	0	0	0	504	638	0	496	39	8	
9	0	0	0	0	509	632	0	487	39	8	
10	0	0	0	0	510	631	0	487	39	8	
11	0	0	0	0	502	630	0	483	39	8	
12	0	0	0	0	497	613	0	486	39	8	
13	0	0	0	0	506	598	0	486	39	8	
14	0	0	0	0	501	582	0	484	39	8	
15	0	0	0	0	501	561	0	485	39	8	
0	0	0	0	0	504	543	0	480	39	8	
1	0	0	0	0	504	524	0	480	39	8	
2	0	0	0	0	498	514	0	478	39	8	
3	0	0	0	0	506	508	0	480	39	9	
4	0	0	0	0	505	496	0	487	39	8	
5	0	0	0	0	507	480	0	485	39	8	
6	0	0	0	0	502	465	0	489	39	8	
7	0	0	0	0	504	449	0	487	39	8	
8	0	0	0	0	500	428	0	484	39	8	
9	0	0	0	0	505	409	0	482	39	8	
10	0	0	0	0	507	384	0	481	39	8	
11	0	0	0	0	510	364	0	489	39	9	
12	0	0	0	0	505	352	0	514	39	8	
13	0	0	0	0	503	343	0	529	39	8	
14	0	0	0	0	505	334	0	530	39	8	
15	0	0	0	0	500	328	0	520	39	8	
0	0	0	0	0	498	332	0	510	39	8	
1	0	0	0	0	512	335	0	499	39	8	
2	0	0	0	0	495	336	0	493	39	8	
3	0	0	0	0	498	342	0	495	39	8	
4	0	0	0	0	499	347	0	493	39	8	
5	0	0	0	0	501	350	0	495	39	8	
6	0	0	0	0	498	357	0	495	39	8	
7	0	0	0	0	504	367	0	491	39	8	
8	0	0	0	0	507	369	0	488	39	8	
9	0	0	0	0	499	368	0	482	39	8	
10	0	0	0	0	505	363	0	484	39	8	
11	0	0	0	0	507	368	0	486	39	8	
12	0	0	0	0	509	376	0	487	39	9	
13	0	0	0	0	508	390	0	509	39	8	
14	0	0	0	0	499	405	0	528	39	8	
15	0	0	0	0	503	414	0	538	39	8	
0	0	0	0	0	504	419	0	555	39	8	
1	0	0	0	0	504	428	0	557	39	8	
2	0	0	0	0	501	438	0	560	39	8	
3	0	0	0	0	497	445	0	572	39	8	
4	0	0	0	0	495	441	0	570	39	9	
5	0	0	0	0	505	440	0	578	39	8	
6	0	0	0	0	504	444	0	575	39	8	
7	0	0	0	0	504	454	0	571	39	8	
8	0	0	0	0	510	478	0	576	39	8	
9	0	0	0	0	508	497	0	567	39	8	
10	0	0	0	0	503	500	0	571	39	8	
11	0	0	0	0	511	498	0	570	39	8	
12	0	0	0	0	510	500	0	568	39	8	
13	0	0	0	0	502	509	0	571	39	8	
14	0	0	0	0	504	518	0	564	39	8	
15	0	0	0	0	496	522	0	568	39	8	
0	0	0	0	0	515	521	0	569	39	8	
1	0	0	0	0	504	520	0	567	39	8	
2	0	0	0	0	505	523	0	569	39	8	
3	0	0	0	0	502	533	0	561	39	8	
4	0	0	0	0	497	546	0	566	39	8	
5	0	0	0	0	502	552	0	563	39	9	
6	0	0	0	0	505	544	0	560	39	8	
7	0	0	0	0	498	544	0	567	39	8	
8	0	0	0	0	501	554	0	557	39	8	
9	0	0	0	0	500	562	0	561	39	8	
10	0	0	0	0	501	570	0	558	39	8	
11	0	0	0	0	503	569	0	555	39	8	
12	0	0	0	0	513	564	0	561	39	8	
13	0	0	0	0	502	565	0	554	39	9	
14	0	0	0	0	503	564	0	560	39	8	
15	0	0	0	0	502	564	0	561	39	8	
0	0	0	0	0	504	563	0	558	39	8	
1	0	0	0	0	496	559	0	562	39	8	
2	0	0	0	0	508	559	0	554	39	8	
3	0	0	0	0	504	557	0	547	39	8	
4	0	0	0	0	495	552	0	533	39	8	
5	0	0	0	0	498	553	0	518	39	8	
6	0	0	0	0	513	558	0	506	39	8	
7	0	0	0	0	503	561	0	497	39	8	
8	0	0	0	0	503	560	0	490	39	8	
9	0	0	0	0	512	563	0	487	39	8	
10	0	0	0	0	510	567	0	497	39	8	
11	0	0	0	0	496	564	0	521	39	8	
12	0	0	0	0	500	557	0	525	39	8	
13	0	0	0	0	504	551	0	519	39	8	
14	0	0	0	0	503	550	0	508	39	9	
15	0	0	0	0	499	553	0	500	39	8	
0	0	0	0	0	503	557	0	516	39	8	
1	0	0	0	0	501	556	0	514	39	8	
2	0	0	0	0	506	557	0	516	39	8	
3	0	0	0	0	512	561	0	512	39	8	
4	0	0	0	0	500	564	0	505	39	8	
5	0	0	0	0	505	564	0	500	39	8	
6	0	0	0	0	506	570	0	496	39	8	
7	0	0	0	0	506	576	0	492	39	8	
8	0	0	0	0	499	574	0	504	39	8	
9	0	0	0	0	506	570	0	515	39	8	
10	0	0	0	0	502	571	0	513	39	8	
11	0	0	0	0	510	572	0	511	39	8	
12	0	0	0	0	498	567	0	512	39	8	
13	0	0	0	0	504	565	0	506	39	8	
14	0	0	0	0	510	563	0	500	39	8	
15	0	0	0	0	505	559	0	495	39	8	
0	0	0	0	0	498	561	0	492	39	8	
1	0	0	0	0	494	561	0	504	39	8	
2	0	0	0	0	505	566	0	484	39	8	
3	0	0	0	0	508	575	0	494	39	8	
4	0	0	0	0	505	582	0	516	39	8	
5	0	0	0	0	494	584	0	521	39	8	
6	0	0	0	0	501	585	0	516	39	8	
7	0	0	0	0	508	583	0	508	39	9	
8	0	0	0	0	509	586	0	501	39	8	
9	0	0	0	0	503	583	0	500	39	8	
10	0	0	0	0	498	580	0	519	39	8	
11	0	0	0	0	505	577	0	524	39	8	
12	0	0	0	0	509	578	0	517	39	8	
13	0	0	0	0	503	575	0	510	39	8	
14	0	0	0	0	510	567	0	501	39	8	
15	0	0	0	0	510	553	0	499	39	8	
0	0	0	0	0	504	562	0	512	39	8	
1	0	0	0	0	504	575	0	521	39	8	
2	0	0	0	0	499	583	0	518	39	8	
3	0	0	0	0	496	581	0	513	39	8	
4	0	0	0	0	499	570	0	508	39	8	
5	0	0	0	0	510	573	0	504	39	8	
6	0	0	0	0	507	579	0	500	39	8	
7	0	0	0	0	500	584	0	502	39	8	
8	0	0	0	0	500	580	0	500	39	8	
9	0	0	0	0	507	580	0	519	39	8	
10	0	0	0	0	508	578	0	524	39	8	
11	0	0	0	0	500	580	0	519	39	8	
12	0	0	0	0	511	582	0	521	39	8	
13	0	0	0	0	509	576	0	526	39	8	
14	0	0	0	0	505	576	0	531	39	8	
15	0	0	0	0	498	575	0	524	39	8	
0	0	0	0	0	503	568	0	515	39	9	
1	0	0	0	0	502	560	0	510	39	8	
2	0	0	0	0	497	564	0	510	39	8	
3	0	0	0	0	497	572	0	531	39	8	
4	0	0	0	0	507	577	0	537	39	8	
5	0	0	0	0	506	582	0	532	39	8	
6	0	0	0	0	509	575	0	524	39	8	
7	0	0	0	0	507	572	0	514	39	8	
8	0	0	0	0	505	566	0	508	39	8	
9	0	0	0	0	504	562	0	505	39	8	
10	0	0	0	0	501	557	0	519	39	8	
11	0	0	0	0	500	563	0	536	39	8	
12	0	0	0	0	499	573	0	537	39	8	
13	0	0	0	0	497	585	0	531	39	8	
14	0	0	0	0	507	591	0	521	39	8	
15	0	0	0	0	515	583	0	512	39	8	
0	0	0	0	0	509	575	0	515	39	8	
1	0	0	0	0	505	576	0	528	39	8	
2	0	0	0	0	503	582	0	528	39	8	
3	0	0	0	0	502	588	0	521	39	8	
4	0	0	0	0	502	587	0	514	39	8	
5	0	0	0	0	500	584	0	507	39	8	
6	0	0	0	0	503	581	0	504	39	8	
7	0	0	0	0	495	582	0	499	39	8	
8	0	0	0	0	506	584	0	496	39	8	
9	0	0	0	0	507	588	0	512	39	9	
10	0	0	0	0	505	593	0	534	39	8	
11	0	0	0	0	509	593	0	535	39	8	
12	0	0	0	0	503	590	0	531	39	8	
13	0	0	0	0	502	584	0	533	39	8	
14	0	0	0	0	507	577	0	525	39	8	
15	0	0	0	0	505	572	0	528	39	8	
0	0	0	0	0	501	577	0	542	39	8	
1	0	0	0	0	504	586	0	539	39	8	
2	0	0	0	0	503	595	0	528	39	8	
3	0	0	0	0	503	600	0	516	39	8	
4	0	0	0	0	502	603	0	508	39	8	
5	0	0	0	0	505	604	0	502	39	8	
6	0	0	0	0	501	606	0	498	39	8	
7	0	0	0	0	502	612	0	495	39	8	
8	0	0	0	0	502	623	0	494	39	8	
9	0	0	0	0	508	626	0	503	39	8	
10	0	0	0	0	500	624	0	524	39	8	
11	0	0	0	0	504	630	0	527	39	8	
12	0	0	0	0	510	632	0	521	39	8	
13	0	0	0	0	499	625	0	513	39	8	
14	0	0	0	0	500	616	0	515	39	8	
15	0	0	0	0	502	619	0	523	39	8	
0	0	0	0	0	509	620	0	543	39	8	
1	0	0	0	0	504	616	0	547	39	8	
2	0	0	0	0	501	614	0	538	39	9	
3	0	0	0	0	496	614	0	528	39	8	
4	0	0	0	0	498	607	0	516	39	8	
5	0	0	0	0	498	602	0	509	39	8	
6	0	0	0	0	506	598	0	501	39	8	
7	0	0	0	0	511	592	0	513	39	8	
8	0	0	0	0	506	589	0	491	39	8	
9	0	0	0	0	502	592	0	494	39	8	
10	0	0	0	0	499	594	0	517	39	8	
11	0	0	0	0	506	601	0	526	39	8	
12	0	0	0	0	505	599	0	522	39	8	
13	0	0	0	0	501	589	0	524	39	8	
14	0	0	0	0	500	583	0	523	39	8	
15	0	0	0	0	499	581	0	519	39	8	
0	0	0	0	0	505	585	0	533	39	8	
1	0	0	0	0	507	583	0	544	39	8	
2	0	0	0	0	507	575	0	539	39	8	
3	0	0	0	0	505	571	0	527	39	8	
4	0	0	0	0	507	569	0	516	39	8	
5	0	0	0	0	510	570	0	507	39	8	
6	0	0	0	0	506	571	0	502	39	8	
7	0	0	0	0	507	569	0	499	39	8	
8	0	0	0	0	498	563	0	499	39	8	
9	0	0	0	0	501	556	0	500	39	8	
10	0	0	0	0	504	553	0	520	39	8	
11	0	0	0	0	504	544	0	532	39	9	
12	0	0	0	0	503	537	0	530	39	8	
13	0	0	0	0	506	535	0	523	39	8	
14	0	0	0	0	505	541	0	517	39	8	
15	0	0	0	0	500	550	0	509	39	8	
0	0	0	0	0	504	558	0	519	39	8	
1	0	0	0	0	510	555	0	528	39	8	
2	0	0	0	0	497	542	0	525	39	8	
3	0	0	0	0	497	522	0	517	39	8	
4	0	0	0	0	493	507	0	509	39	8	
5	0	0	0	0	503	509	0	502	39	8	
6	0	0	0	0	506	516	0	497	39	8	
7	0	0	0	0	502	508	0	495	39	8	
8	0	0	0	0	507	491	0	497	39	8	
9	0	0	0	0	502	479	0	513	39	8	
10	0	0	0	0	505	471	0	526	39	8	
11	0	0	0	0	504	476	0	524	39	8	
12	0	0	0	0	506	483	0	524	39	8	
13	0	0	0	0	501	487	0	525	39	8	
14	0	0	0	0	504	496	0	519	39	8	
15	0	0	0	0	504	501	0	529	39	8	
0	0	0	0	0	504	504	0	541	39	8	
1	0	0	0	0	504	505	0	540	39	8	
2	0	0	0	0	501	491	0	529	39	8	
3	0	0	0	0	507	468	0	518	39	8	
4	0	0	0	0	510	451	0	508	39	9	
5	0	0	0	0	499	449	0	502	39	8	
6	0	0	0	0	500	449	0	497	39	8	
7	0	0	0	0	510	455	0	497	39	8	
8	0	0	0	0	496	457	0	494	39	8	
9	0	0	0	0	504	455	0	509	39	8	
10	0	0	0	0	501	446	0	530	39	8	
11	0	0	0	0	508	450	0	533	39	8	
12	0	0	0	0	502	452	0	524	39	9	
13	0	0	0	0	502	443	0	515	39	8	
14	0	0	0	0	504	440	0	522	39	8	
15	0	0	0	0	504	440	0	510	39	8	
0	0	0	0	0	501	445	0	522	39	8	
1	0	0	0	0	505	449	0	519	39	8	
2	0	0	0	0	508	446	0	511	39	8	
3	0	0	0	0	516	442	0	506	39	8	
4	0	0	0	0	507	441	0	499	39	8	
5	0	0	0	0	501	441	0	494	39	8	
6	0	0	0	0	504	443	0	494	39	8	
7	0	0	0	0	503	445	0	490	39	8	
8	0	0	0	0	504	442	0	490	39	8	
9	0	0	0	0	501	437	0	500	39	8	
10	0	0	0	0	496	431	0	520	39	8	
11	0	0	0	0	495	431	0	527	39	8	
12	0	0	0	0	505	435	0	521	39	8	
13	0	0	0	0	511	436	0	524	39	9	
14	0	0	0	0	504	440	0	517	39	8	
15	0	0	0	0	505	438	0	514	39	8	
0	0	0	0	0	499	436	0	530	39	8	
1	0	0	0	0	508	438	0	533	39	8	
2	0	0	0	0	503	441	0	524	39	8	
3	0	0	0	0	503	443	0	512	39	8	
4	0	0	0	0	508	445	0	501	39	8	
5	0	0	0	0	507	447	0	493	39	9	
6	0	0	0	0	499	444	0	487	39	8	
7	0	0	0	0	513	435	0	484	39	8	
8	0	0	0	0	496	430	0	490	39	8	
9	0	0	0	0	499	431	0	502	39	8	
10	0	0	0	0	503	433	0	504	39	8	
11	0	0	0	0	506	432	0	497	39	8	
12	0	0	0	0	501	425	0	490	39	8	
13	0	0	0	0	497	422	0	487	39	8	
14	0	0	0	0	505	432	0	480	39	8	
15	0	0	0	0	502	450	0	480	39	8	
0	0	0	0	0	509	457	0	476	39	8	
1	0	0	0	0	511	459	0	490	39	8	
2	0	0	0	0	504	461	0	508	39	8	
3	0	0	0	0	505	462	0	509	39	8	
4	0	0	0	0	509	453	0	520	39	8	
5	0	0	0	0	513	445	0	496	39	8	
6	0	0	0	0	511	441	0	489	39	9	
7	0	0	0	0	499	441	0	496	39	8	
8	0	0	0	0	495	439	0	508	39	8	
9	0	0	0	0	501	440	0	507	39	8	
10	0	0	0	0	496	444	0	501	39	8	
11	0	0	0	0	502	448	0	506	39	8	
12	0	0	0	0	505	449	0	501	39	8	
13	0	0	0	0	499	446	0	489	39	8	
14	0	0	0	0	496	444	0	484	39	8	
15	0	0	0	0	502	446	0	478	39	8	
0	0	0	0	0	511	455	0	474	39	8	
1	0	0	0	0	504	454	0	479	39	8	
2	0	0	0	0	502	467	0	480	39	8	
3	0	0	0	0	514	471	0	506	39	8	
4	0	0	0	0	505	470	0	516	39	8	
5	0	0	0	0	505	467	0	512	39	8	
6	0	0	0	0	510	456	0	519	39	8	
7	0	0	0	0	500	450	0	531	39	8	
8	0	0	0	0	498	447	0	528	39	8	
9	0	0	0	0	497	446	0	519	39	8	
10	0	0	0	0	506	448	0	508	39	8	
11	0	0	0	0	499	449	0	500	39	8	
12	0	0	0	0	502	451	0	494	39	8	
13	0	0	0	0	504	447	0	491	39	8	
14	0	0	0	0	504	448	0	484	39	8	
15	0	0	0	0	507	450	0	480	39	9	
0	0	0	0	0	507	454	0	479	39	8	
1	0	0	0	0	507	449	0	471	39	8	
2	0	0	0	0	504	454	0	471	39	8	
3	0	0	0	0	506	468	0	471	39	8	
4	0	0	0	0	500	464	0	471	39	8	
5	0	0	0	0	503	455	0	474	39	8	
6	0	0	0	0	510	452	0	472	39	8	
7	0	0	0	0	502	451	0	473	39	8	
8	0	0	0	0	499	452	0	468	39	8	
9	0	0	0	0	494	449	0	463	39	8	
10	0	0	0	0	505	448	0	466	39	8	
11	0	0	0	0	504	450	0	465	39	8	
12	0	0	0	0	499	459	0	469	39	8	
13	0	0	0	0	502	467	0	469	39	8	
14	0	0	0	0	508	476	0	469	39	8	
15	0	0	0	0	503	483	0	471	39	8	
0	0	0	0	0	502	485	0	464	39	8	
1	0	0	0	0	500	483	0	465	39	8	
2	0	0	0	0	504	485	0	463	39	8	
3	0	0	0	0	509	482	0	466	39	8	
4	0	0	0	0	504	474	0	469	39	8	
5	0	0	0	0	504	468	0	468	39	8	
6	0	0	0	0	500	465	0	471	39	8	
7	0	0	0	0	503	464	0	469	39	8	
8	0	0	0	0	505	462	0	468	39	9	
9	0	0	0	0	498	462	0	478	39	8	
10	0	0	0	0	494	463	0	499	39	8	
11	0	0	0	0	506	465	0	507	39	8	
12	0	0	0	0	504	470	0	502	39	8	
13	0	0	0	0	503	476	0	493	39	8	
14	0	0	0	0	503	477	0	484	39	8	
15	0	0	0	0	497	473	0	471	39	8	
0	0	0	0	0	496	471	0	465	39	8	
1	0	0	0	0	503	472	0	468	39	8	
2	0	0	0	0	504	470	0	461	39	8	
3	0	0	0	0	507	469	0	461	39	8	
4	0	0	0	0	511	469	0	460	39	8	
5	0	0	0	0	494	466	0	464	39	8	
6	0	0	0	0	508	467	0	463	39	8	
7	0	0	0	0	510	469	0	463	39	8	
8	0	0	0	0	505	469	0	463	39	8	
9	0	0	0	0	502	467	0	458	39	8	
10	0	0	0	0	499	466	0	464	39	8	
11	0	0	0	0	505	464	0	464	39	8	
12	0	0	0	0	508	469	0	465	39	8	
13	0	0	0	0	501	477	0	470	39	8	
14	0	0	0	0	498	481	0	468	39	8	
15	0	0	0	0	496	485	0	471	39	8	
0	0	0	0	0	507	491	0	467	39	8	
1	0	0	0	0	505	498	0	465	39	8	
2	0	0	0	0	508	501	0	495	39	8	
3	0	0	0	0	507	499	0	507	39	8	
4	0	0	0	0	505	499	0	516	39	8	
5	0	0	0	0	504	496	0	513	39	8	
6	0	0	0	0	509	490	0	504	39	8	
7	0	0	0	0	501	483	0	496	39	8	
8	0	0	0	0	507	473	0	483	39	8	
9	0	0	0	0	507	470	0	477	39	8	
10	0	0	0	0	493	468	0	470	39	8	
11	0	0	0	0	501	464	0	467	39	8	
12	0	0	0	0	500	456	0	471	39	8	
13	0	0	0	0	502	458	0	468	39	8	
14	0	0	0	0	502	475	0	472	39	8	
15	0	0	0	0	505	484	0	469	39	8	
0	0	0	0	0	506	490	0	468	39	8	
1	0	0	0	0	499	499	0	468	39	8	
2	0	0	0	0	503	509	0	465	39	8	
3	0	0	0	0	502	522	0	469	39	8	
4	0	0	0	0	505	529	0	469	39	8	
5	0	0	0	0	505	524	0	468	39	8	
6	0	0	0	0	500	509	0	471	39	8	
7	0	0	0	0	505	491	0	475	39	8	
8	0	0	0	0	499	495	0	502	39	8	
9	0	0	0	0	504	496	0	512	39	8	
10	0	0	0	0	504	494	0	525	39	8	
11	0	0	0	0	499	488	0	541	39	8	
12	0	0	0	0	507	485	0	541	39	8	
13	0	0	0	0	497	487	0	555	39	8	
14	0	0	0	0	509	485	0	548	39	8	
15	0	0	0	0	497	480	0	550	39	8	
0	0	0	0	0	504	479	0	548	39	8	
1	0	0	0	0	500	480	0	537	39	8	
2	0	0	0	0	505	479	0	547	39	8	
3	0	0	0	0	507	487	0	543	39	8	
4	0	0	0	0	508	497	0	546	39	8	
5	0	0	0	0	508	504	0	548	39	8	
6	0	0	0	0	504	507	0	534	39	8	
7	0	0	0	0	502	497	0	517	39	8	
8	0	0	0	0	502	478	0	504	39	8	
9	0	0	0	0	506	466	0	509	39	8	
10	0	0	0	0	497	469	0	524	39	8	
11	0	0	0	0	511	483	0	526	39	8	
12	0	0	0	0	495	497	0	540	39	8	
13	0	0	0	0	502	498	0	538	39	8	
14	0	0	0	0	501	494	0	543	39	8	
15	0	0	0	0	505	488	0	543	39	8	
0	0	0	0	0	500	487	0	537	39	8	
1	0	0	0	0	505	492	0	547	39	8	
2	0	0	0	0	509	497	0	551	39	8	
3	0	0	0	0	502	501	0	552	39	8	
4	0	0	0	0	511	503	0	555	39	8	
5	0	0	0	0	507	504	0	543	39	8	
6	0	0	0	0	502	502	0	526	39	8	
7	0	0	0	0	498	496	0	527	39	8	
8	0	0	0	0	506	489	0	499	39	8	
9	0	0	0	0	495	481	0	495	39	8	
10	0	0	0	0	510	477	0	496	39	8	
11	0	0	0	0	497	472	0	517	39	8	
12	0	0	0	0	501	474	0	526	39	8	
13	0	0	0	0	505	478	0	519	39	8	
14	0	0	0	0	505	481	0	534	39	8	
15	0	0	0	0	500	484	0	541	39	8	
0	0	0	0	0	506	489	0	542	39	8	
1	0	0	0	0	500	488	0	532	39	8	
2	0	0	0	0	500	487	0	519	39	8	
3	0	0	0	0	505	491	0	511	39	8	
4	0	0	0	0	509	494	0	504	39	8	
5	0	0	0	0	505	498	0	502	39	8	
6	0	0	0	0	509	505	0	498	39	8	
7	0	0	0	0	499	508	0	497	39	8	
8	0	0	0	0	504	505	0	505	39	8	
9	0	0	0	0	507	502	0	519	39	8	
10	0	0	0	0	508	497	0	522	39	8	
11	0	0	0	0	507	497	0	515	39	8	
12	0	0	0	0	502	497	0	508	39	8	
13	0	0	0	0	509	495	0	504	39	8	
14	0	0	0	0	502	488	0	501	39	8	
15	0	0	0	0	498	484	0	498	39	8	
0	0	0	0	0	506	493	0	496	39	8	
1	0	0	0	0	505	497	0	514	39	8	
2	0	0	0	0	502	498	0	534	39	8	
3	0	0	0	0	495	500	0	539	39	8	
4	0	0	0	0	496	507	0	531	39	8	
5	0	0	0	0	503	511	0	524	39	8	
6	0	0	0	0	500	513	0	516	39	8	
7	0	0	0	0	512	515	0	524	39	8	
8	0	0	0	0	499	517	0	537	39	8	
9	0	0	0	0	502	516	0	533	39	8	
10	0	0	0	0	504	513	0	526	39	8	
11	0	0	0	0	500	516	0	529	39	8	
12	0	0	0	0	509	525	0	527	39	8	
13	0	0	0	0	497	525	0	522	39	8	
14	0	0	0	0	502	512	0	518	39	8	
15	0	0	0	0	500	491	0	513	39	8	
0	0	0	0	0	505	481	0	506	39	8	
1	0	0	0	0	504	485	0	504	39	8	
2	0	0	0	0	509	492	0	509	39	8	
3	0	0	0	0	498	500	0	532	39	8	
4	0	0	0	0	501	508	0	540	39	8	
5	0	0	0	0	503	504	0	535	39	8	
6	0	0	0	0	512	504	0	526	39	8	
7	0	0	0	0	504	502	0	517	39	8	
8	0	0	0	0	512	492	0	515	39	8	
9	0	0	0	0	502	486	0	532	39	8	
10	0	0	0	0	503	492	0	545	39	8	
11	0	0	0	0	508	496	0	542	39	8	
12	0	0	0	0	513	498	0	534	39	8	
13	0	0	0	0	511	489	0	525	39	8	
14	0	0	0	0	497	479	0	517	39	8	
15	0	0	0	0	499	476	0	510	39	8	
0	0	0	0	0	509	482	0	518	39	8	
1	0	0	0	0	500	487	0	533	39	8	
2	0	0	0	0	497	489	0	536	39	8	
3	0	0	0	0	504	493	0	529	39	8	
4	0	0	0	0	503	493	0	520	39	8	
5	0	0	0	0	504	492	0	513	39	8	
6	0	0	0	0	502	483	0	507	39	8	
7	0	0	0	0	500	474	0	504	39	8	
8	0	0	0	0	504	475	0	499	39	8	
9	0	0	0	0	504	478	0	518	39	8	
10	0	0	0	0	503	479	0	534	39	8	
11	0	0	0	0	506	482	0	536	39	8	
12	0	0	0	0	508	492	0	532	39	8	
13	0	0	0	0	507	495	0	533	39	8	
14	0	0	0	0	503	487	0	534	39	8	
15	0	0	0	0	501	482	0	529	39	8	
0	0	0	0	0	496	480	0	541	39	8	
1	0	0	0	0	500	482	0	539	39	8	
2	0	0	0	0	504	485	0	530	39	8	
3	0	0	0	0	503	483	0	519	39	8	
4	0	0	0	0	502	484	0	512	39	8	
5	0	0	0	0	501	483	0	503	39	8	
6	0	0	0	0	510	480	0	500	39	8	
7	0	0	0	0	505	475	0	495	39	8	
8	0	0	0	0	503	474	0	494	39	8	
9	0	0	0	0	501	477	0	504	39	8	
10	0	0	0	0	498	481	0	524	39	8	
11	0	0	0	0	504	488	0	527	39	8	
12	0	0	0	0	493	487	0	519	39	8	
13	0	0	0	0	506	480	0	510	39	8	
14	0	0	0	0	510	472	0	502	39	8	
15	0	0	0	0	505	471	0	503	39	8	
0	0	0	0	0	499	463	0	520	39	8	
1	0	0	0	0	506	460	0	526	39	8	
2	0	0	0	0	510	459	0	521	39	8	
3	0	0	0	0	503	470	0	515	39	8	
4	0	0	0	0	508	484	0	509	39	8	
5	0	0	0	0	500	484	0	502	39	8	
6	0	0	0	0	500	482	0	498	39	8	
7	0	0	0	0	500	490	0	496	39	8	
8	0	0	0	0	499	491	0	507	39	8	
9	0	0	0	0	507	491	0	524	39	8	
10	0	0	0	0	499	483	0	526	39	8	
11	0	0	0	0	502	482	0	520	39	8	
12	0	0	0	0	506	486	0	524	39	8	
13	0	0	0	0	504	489	0	523	39	8	
14	0	0	0	0	507	486	0	518	39	8	
15	0	0	0	0	505	471	0	512	39	8	
0	0	0	0	0	507	465	0	507	39	8	
1	0	0	0	0	505	470	0	505	39	8	
2	0	0	0	0	507	478	0	514	39	8	
3	0	0	0	0	498	485	0	535	39	8	
4	0	0	0	0	509	490	0	539	39	8	
5	0	0	0	0	505	494	0	533	39	8	
6	0	0	0	0	501	493	0	524	39	8	
7	0	0	0	0	504	494	0	516	39	8	
8	0	0	0	0	505	490	0	524	39	8	
9	0	0	0	0	501	486	0	510	39	8	
10	0	0	0	0	497	483	0	527	39	8	
11	0	0	0	0	507	476	0	541	39	8	
12	0	0	0	0	504	470	0	538	39	8	
13	0	0	0	0	502	471	0	535	39	8	
14	0	0	0	0	513	476	0	520	39	8	
15	0	0	0	0	507	480	0	514	39	8	
0	0	0	0	0	498	483	0	521	39	8	
1	0	0	0	0	497	484	0	531	39	8	
2	0	0	0	0	506	483	0	528	39	8	
3	0	0	0	0	501	481	0	520	39	8	
4	0	0	0	0	510	478	0	512	39	8	
5	0	0	0	0	510	487	0	504	39	8	
6	0	0	0	0	500	504	0	499	39	8	
7	0	0	0	0	500	515	0	495	39	8	
8	0	0	0	0	507	520	0	497	39	8	
9	0	0	0	0	505	521	0	517	39	8	
10	0	0	0	0	505	522	0	528	39	8	
11	0	0	0	0	506	524	0	526	39	8	
12	0	0	0	0	504	535	0	526	39	8	
13	0	0	0	0	502	539	0	527	39	8	
14	0	0	0	0	503	537	0	520	39	8	
15	0	0	0	0	508	537	0	530	39	8	
0	0	0	0	0	502	543	0	541	39	8	
1	0	0	0	0	501	547	0	536	39	8	
2	0	0	0	0	499	547	0	526	39	8	
3	0	0	0	0	501	552	0	516	39	8	
4	0	0	0	0	500	559	0	504	39	8	
5	0	0	0	0	506	565	0	502	39	8	
6	0	0	0	0	505	571	0	499	39	8	
7	0	0	0	0	497	581	0	499	39	8	
8	0	0	0	0	508	592	0	497	39	8	
9	0	0	0	0	504	600	0	496	39	8	
10	0	0	0	0	509	609	0	509	39	8	
11	0	0	0	0	508	613	0	533	39	8	
12	0	0	0	0	502	613	0	542	39	8	
13	0	0	0	0	508	608	0	539	39	8	
14	0	0	0	0	504	595	0	547	39	8	
15	0	0	0	0	504	579	0	555	39	8	
0	0	0	0	0	501	559	0	545	39	8	
1	0	0	0	0	499	549	0	532	39	8	
2	0	0	0	0	496	536	0	523	39	8	
3	0	0	0	0	505	519	0	514	39	8	
4	0	0	0	0	499	494	0	511	39	8	
5	0	0	0	0	499	466	0	508	39	8	
6	0	0	0	0	498	448	0	506	39	8	
7	0	0	0	0	505	440	0	506	39	8	
8	0	0	0	0	508	433	0	504	39	8	
9	0	0	0	0	502	422	0	520	39	8	
10	0	0	0	0	501	411	0	538	39	8	
11	0	0	0	0	502	408	0	542	39	8	
12	0	0	0	0	507	399	0	536	39	8	
13	0	0	0	0	505	382	0	538	39	8	
14	0	0	0	0	503	364	0	533	39	8	
15	0	0	0	0	500	338	0	531	39	8	
0	0	0	0	0	508	311	0	550	39	8	
1	0	0	0	0	512	302	0	553	39	8	
2	0	0	0	0	514	311	0	544	39	8	
3	0	0	0	0	503	314	0	533	39	8	
4	0	0	0	0	499	327	0	521	39	8	
5	0	0	0	0	498	344	0	513	38	8	
6	0	0	0	0	499	350	0	507	39	8	
7	0	0	0	0	507	350	0	502	39	8	
8	0	0	0	0	503	343	0	512	39	8	
9	0	0	0	0	500	339	0	528	39	8	
10	0	0	0	0	500	337	0	531	39	8	
11	0	0	0	0	504	341	0	527	39	8	
12	0	0	0	0	510	346	0	520	39	8	
13	0	0	0	0	500	347	0	515	39	8	
14	0	0	0	0	502	347	0	510	39	8	
15	0	0	0	0	508	344	0	518	39	8	
0	0	0	0	0	506	344	0	504	39	8	
1	0	0	0	0	507	351	0	519	39	8	
2	0	0	0	0	505	361	0	536	39	8	
3	0	0	0	0	501	373	0	537	39	8	
4	0	0	0	0	500	387	0	546	39	8	
5	0	0	0	0	504	400	0	518	39	8	
6	0	0	0	0	500	411	0	505	39	8	
7	0	0	0	0	509	417	0	496	39	8	
8	0	0	0	0	503	423	0	483	39	8	
9	0	0	0	0	498	433	0	484	39	8	
10	0	0	0	0	504	447	0	471	39	8	
11	0	0	0	0	501	456	0	469	39	8	
12	0	0	0	0	497	469	0	472	39	8	
13	0	0	0	0	507	473	0	472	39	8	
14	0	0	0	0	503	476	0	477	39	8	
15	0	0	0	0	501	479	0	476	39	8	
0	0	0	0	0	501	484	0	477	39	8	
1	0	0	0	0	511	493	0	474	39	8	
2	0	0	0	0	506	496	0	473	39	8	
3	0	0	0	0	504	498	0	476	39	8	
4	0	0	0	0	502	501	0	477	39	8	
5	0	0	0	0	502	504	0	479	39	8	
6	0	0	0	0	510	505	0	481	39	8	
7	0	0	0	0	502	511	0	477	39	8	
8	0	0	0	0	504	523	0	476	39	8	
9	0	0	0	0	505	527	0	470	39	8	
10	0	0	0	0	495	530	0	467	39	8	
11	0	0	0	0	497	530	0	471	39	8	
12	0	0	0	0	508	527	0	479	39	8	
13	0	0	0	0	499	525	0	508	39	8	
14	0	0	0	0	500	527	0	519	39	8	
15	0	0	0	0	502	523	0	511	39	8	
0	0	0	0	0	497	518	0	499	39	8	
1	0	0	0	0	508	517	0	501	39	8	
2	0	0	0	0	507	516	0	483	39	8	
3	0	0	0	0	504	520	0	480	39	8	
4	0	0	0	0	504	524	0	477	39	8	
5	0	0	0	0	504	527	0	489	39	8	
6	0	0	0	0	504	526	0	517	39	8	
7	0	0	0	0	506	524	0	528	39	8	
8	0	0	0	0	495	519	0	548	39	8	
9	0	0	0	0	505	513	0	558	39	8	
10	0	0	0	0	510	504	0	559	39	8	
11	0	0	0	0	494	503	0	571	39	8	
12	0	0	0	0	497	510	0	567	39	8	
13	0	0	0	0	498	519	0	572	38	8	
14	0	0	0	0	508	524	0	571	39	8	
15	0	0	0	0	498	526	0	566	39	8	
0	0	0	0	0	505	531	0	566	39	8	
1	0	0	0	0	507	533	0	555	39	8	
2	0	0	0	0	509	529	0	559	39	8	
3	0	0	0	0	513	530	0	557	39	8	
4	0	0	0	0	511	531	0	554	39	8	
5	0	0	0	0	501	534	0	560	39	8	
6	0	0	0	0	502	537	0	552	39	8	
7	0	0	0	0	498	537	0	559	39	8	
8	0	0	0	0	501	527	0	557	39	8	
9	0	0	0	0	507	521	0	553	39	8	
10	0	0	0	0	502	527	0	559	39	8	
11	0	0	0	0	502	540	0	552	39	8	
12	0	0	0	0	490	546	0	558	39	8	
13	0	0	0	0	509	541	0	555	38	9	
14	0	0	0	0	508	524	0	540	39	8	
15	0	0	0	0	505	523	0	524	39	8	
0	0	0	0	0	496	534	0	508	39	8	
1	0	0	0	0	505	536	0	498	39	8	
2	0	0	0	0	512	536	0	489	39	8	
3	0	0	0	0	494	536	0	496	39	8	
4	0	0	0	0	504	531	0	516	39	8	
5	0	0	0	0	506	528	0	521	38	8	
6	0	0	0	0	505	529	0	514	39	8	
7	0	0	0	0	499	529	0	504	39	8	
8	0	0	0	0	504	530	0	497	39	8	
9	0	0	0	0	503	536	0	498	39	8	
10	0	0	0	0	503	534	0	516	39	8	
11	0	0	0	0	505	529	0	521	39	8	
12	0	0	0	0	495	526	0	532	39	8	
13	0	0	0	0	504	526	0	553	39	8	
14	0	0	0	0	502	525	0	531	39	8	
15	0	0	0	0	505	520	0	513	39	8	
0	0	0	0	0	509	521	0	495	39	8	
1	0	0	0	0	512	527	0	482	39	8	
2	0	0	0	0	505	531	0	479	39	8	
3	0	0	0	0	503	535	0	471	39	8	
4	0	0	0	0	506	532	0	472	39	8	
5	0	0	0	0	508	527	0	472	39	8	
6	0	0	0	0	507	529	0	471	39	8	
7	0	0	0	0	499	532	0	470	39	8	
8	0	0	0	0	497	533	0	467	39	8	
9	0	0	0	0	499	536	0	466	39	8	
10	0	0	0	0	501	540	0	466	39	8	
11	0	0	0	0	505	541	0	467	39	8	
12	0	0	0	0	501	536	0	470	39	8	
13	0	0	0	0	494	531	0	470	39	8	
14	0	0	0	0	499	532	0	474	39	8	
15	0	0	0	0	508	534	0	473	39	8	
0	0	0	0	0	506	534	0	467	39	8	
1	0	0	0	0	502	533	0	466	39	8	
2	0	0	0	0	508	532	0	464	39	8	
3	0	0	0	0	500	533	0	469	39	8	
4	0	0	0	0	501	534	0	469	39	8	
5	0	0	0	0	511	529	0	470	39	8	
6	0	0	0	0	505	528	0	485	39	8	
7	0	0	0	0	504	530	0	509	39	8	
8	0	0	0	0	507	535	0	513	39	8	
9	0	0	0	0	502	538	0	508	39	8	
10	0	0	0	0	501	534	0	497	39	8	
11	0	0	0	0	503	533	0	490	39	8	
12	0	0	0	0	502	535	0	483	39	8	
13	0	0	0	0	503	537	0	480	39	8	
14	0	0	0	0	500	537	0	475	39	8	
15	0	0	0	0	502	539	0	471	39	8	
0	0	0	0	0	510	539	0	465	39	8	
1	0	0	0	0	505	542	0	459	39	8	
2	0	0	0	0	500	544	0	463	39	8	
3	0	0	0	0	495	546	0	472	39	8	
4	0	0	0	0	509	542	0	466	39	8	
5	0	0	0	0	503	540	0	467	39	8	
6	0	0	0	0	501	554	0	463	39	8	
7	0	0	0	0	503	570	0	464	39	8	
8	0	0	0	0	509	572	0	460	39	8	
9	0	0	0	0	506	574	0	459	39	8	
10	0	0	0	0	504	571	0	461	39	8	
11	0	0	0	0	499	563	0	458	39	8	
12	0	0	0	0	501	551	0	461	39	8	
13	0	0	0	0	506	540	0	461	39	8	
14	0	0	0	0	507	545	0	463	39	8	
15	0	0	0	0	506	558	0	475	39	8	
0	0	0	0	0	504	575	0	494	39	8	
1	0	0	0	0	507	583	0	497	39	8	
2	0	0	0	0	507	580	0	491	39	8	
3	0	0	0	0	505	576	0	486	39	8	
4	0	0	0	0	497	571	0	483	39	8	
5	0	0	0	0	499	572	0	477	39	8	
6	0	0	0	0	503	572	0	479	39	8	
7	0	0	0	0	506	572	0	474	39	8	
8	0	0	0	0	504	571	0	471	39	8	
9	0	0	0	0	505	576	0	470	39	8	
10	0	0	0	0	502	575	0	467	39	8	
11	0	0	0	0	507	565	0	471	39	8	
12	0	0	0	0	502	563	0	470	39	8	
13	0	0	0	0	502	563	0	471	38	8	
14	0	0	0	0	506	567	0	473	39	8	
15	0	0	0	0	498	565	0	470	39	8	
0	0	0	0	0	496	564	0	470	39	8	
1	0	0	0	0	511	565	0	467	39	8	
2	0	0	0	0	514	576	0	467	39	8	
3	0	0	0	0	503	583	0	473	39	8	
4	0	0	0	0	503	583	0	473	39	8	
5	0	0	0	0	502	587	0	479	39	8	
6	0	0	0	0	507	583	0	479	39	8	
7	0	0	0	0	505	577	0	477	39	8	
8	0	0	0	0	502	569	0	476	39	8	
9	0	0	0	0	506	562	0	470	39	8	
10	0	0	0	0	507	558	0	476	39	8	
11	0	0	0	0	498	552	0	500	39	8	
12	0	0	0	0	503	553	0	521	39	8	
13	0	0	0	0	505	556	0	522	39	8	
14	0	0	0	0	505	555	0	514	39	8	
15	0	0	0	0	501	557	0	519	39	8	
0	0	0	0	0	499	559	0	495	39	8	
1	0	0	0	0	502	560	0	487	39	8	
2	0	0	0	0	509	557	0	496	39	8	
3	0	0	0	0	507	553	0	516	39	8	
4	0	0	0	0	498	549	0	523	39	8	
5	0	0	0	0	499	545	0	540	39	8	
6	0	0	0	0	508	543	0	551	39	8	
7	0	0	0	0	510	539	0	553	39	8	
8	0	0	0	0	499	535	0	558	39	8	
9	0	0	0	0	503	532	0	550	39	8	
10	0	0	0	0	499	534	0	553	39	8	
11	0	0	0	0	502	532	0	552	39	8	
12	0	0	0	0	513	527	0	551	39	8	
13	0	0	0	0	496	525	0	558	39	8	
14	0	0	0	0	507	525	0	555	39	8	
15	0	0	0	0	502	519	0	560	39	8	
0	0	0	0	0	505	517	0	556	39	8	
1	0	0	0	0	503	516	0	552	39	8	
2	0	0	0	0	504	515	0	559	39	8	
3	0	0	0	0	499	516	0	553	39	8	
4	0	0	0	0	505	512	0	557	39	8	
5	0	0	0	0	503	504	0	552	39	8	
6	0	0	0	0	509	496	0	548	39	8	
7	0	0	0	0	499	492	0	555	39	8	
8	0	0	0	0	511	483	0	550	39	8	
9	0	0	0	0	516	474	0	556	39	8	
10	0	0	0	0	501	471	0	557	39	8	
11	0	0	0	0	503	468	0	555	39	8	
12	0	0	0	0	502	467	0	560	39	8	
13	0	0	0	0	495	467	0	552	39	8	
14	0	0	0	0	503	463	0	556	39	8	
15	0	0	0	0	508	461	0	551	39	8	
0	0	0	0	0	500	458	0	548	39	8	
1	0	0	0	0	503	455	0	555	39	8	
2	0	0	0	0	504	449	0	548	39	8	
3	0	0	0	0	501	444	0	531	39	8	
4	0	0	0	0	504	440	0	513	39	8	
5	0	0	0	0	499	439	0	502	39	8	
6	0	0	0	0	506	440	0	490	39	8	
7	0	0	0	0	498	442	0	487	39	8	
8	0	0	0	0	504	445	0	480	39	8	
9	0	0	0	0	509	447	0	477	39	8	
10	0	0	0	0	507	442	0	476	39	8	
11	0	0	0	0	494	436	0	474	39	8	
12	0	0	0	0	502	432	0	480	39	8	
13	0	0	0	0	506	421	0	479	39	8	
14	0	0	0	0	505	416	0	479	39	8	
15	0	0	0	0	498	427	0	479	39	8	
0	0	0	0	0	504	440	0	473	39	8	
1	0	0	0	0	507	441	0	474	39	8	
2	0	0	0	0	513	429	0	471	39	8	
3	0	0	0	0	502	429	0	476	39	8	
4	0	0	0	0	498	440	0	476	39	8	
5	0	0	0	0	507	444	0	476	39	8	
6	0	0	0	0	502	436	0	483	39	8	
7	0	0	0	0	505	425	0	482	39	8	
8	0	0	0	0	506	428	0	481	39	8	
9	0	0	0	0	502	432	0	492	39	8	
10	0	0	0	0	502	425	0	517	39	8	
11	0	0	0	0	502	419	0	524	39	8	
12	0	0	0	0	501	412	0	520	39	8	
13	0	0	0	0	504	407	0	513	38	8	
14	0	0	0	0	504	409	0	508	39	8	
15	0	0	0	0	503	409	0	504	39	8	
0	0	0	0	0	507	410	0	499	39	8	
1	0	0	0	0	504	413	0	497	39	8	
2	0	0	0	0	500	413	0	494	39	8	
3	0	0	0	0	494	412	0	494	39	8	
4	0	0	0	0	500	411	0	493	39	8	
5	0	0	0	0	509	412	0	494	39	8	
6	0	0	0	0	509	417	0	492	39	8	
7	0	0	0	0	510	418	0	491	39	8	
8	0	0	0	0	501	415	0	492	39	8	
9	0	0	0	0	508	410	0	490	39	8	
10	0	0	0	0	500	414	0	492	39	8	
11	0	0	0	0	510	428	0	489	39	8	
12	0	0	0	0	503	433	0	488	39	8	
13	0	0	0	0	497	431	0	489	39	8	
14	0	0	0	0	503	418	0	487	39	8	
15	0	0	0	0	502	414	0	485	39	8	
0	0	0	0	0	505	424	0	477	39	8	
1	0	0	0	0	507	433	0	476	39	8	
2	0	0	0	0	503	443	0	487	39	8	
3	0	0	0	0	495	443	0	497	39	8	
4	0	0	0	0	497	448	0	499	39	8	
5	0	0	0	0	499	450	0	497	39	8	
6	0	0	0	0	509	456	0	495	39	8	
7	0	0	0	0	508	459	0	503	39	8	
8	0	0	0	0	504	457	0	519	39	8	
9	0	0	0	0	504	452	0	534	39	8	
10	0	0	0	0	499	448	0	548	39	8	
11	0	0	0	0	499	448	0	546	39	8	
12	0	0	0	0	507	453	0	546	39	8	
13	0	0	0	0	506	451	0	558	39	8	
14	0	0	0	0	502	447	0	554	39	8	
15	0	0	0	0	510	444	0	563	39	8	
0	0	0	0	0	508	439	0	567	39	8	
1	0	0	0	0	505	432	0	566	39	8	
2	0	0	0	0	502	430	0	572	39	8	
3	0	0	0	0	504	438	0	564	39	8	
4	0	0	0	0	496	441	0	566	39	8	
5	0	0	0	0	496	439	0	562	39	8	
6	0	0	0	0	504	440	0	557	39	8	
7	0	0	0	0	496	444	0	573	39	8	
8	0	0	0	0	506	445	0	553	39	8	
9	0	0	0	0	507	446	0	556	39	8	
10	0	0	0	0	508	443	0	552	39	8	
11	0	0	0	0	504	429	0	548	39	8	
12	0	0	0	0	504	419	0	557	39	8	
13	0	0	0	0	507	422	0	553	39	8	
14	0	0	0	0	504	428	0	557	39	8	
15	0	0	0	0	505	437	0	552	39	8	
0	0	0	0	0	499	440	0	548	39	8	
1	0	0	0	0	499	443	0	551	39	8	
2	0	0	0	0	504	446	0	541	39	8	
3	0	0	0	0	506	441	0	534	39	8	
4	0	0	0	0	506	441	0	518	39	8	
5	0	0	0	0	502	440	0	505	39	8	
6	0	0	0	0	498	442	0	496	39	8	
7	0	0	0	0	505	447	0	491	39	8	
8	0	0	0	0	504	450	0	483	39	8	
9	0	0	0	0	502	451	0	477	39	8	
10	0	0	0	0	508	461	0	486	39	8	
11	0	0	0	0	497	466	0	506	39	8	
12	0	0	0	0	508	461	0	510	39	8	
13	0	0	0	0	510	453	0	506	39	8	
14	0	0	0	0	503	447	0	496	39	8	
15	0	0	0	0	504	452	0	489	39	8	
0	0	0	0	0	497	458	0	489	39	8	
1	0	0	0	0	504	454	0	504	39	8	
2	0	0	0	0	504	452	0	516	39	8	
3	0	0	0	0	499	455	0	504	39	8	
4	0	0	0	0	501	457	0	496	39	8	
5	0	0	0	0	499	456	0	489	39	8	
6	0	0	0	0	502	445	0	486	39	8	
7	0	0	0	0	507	428	0	480	39	8	
8	0	0	0	0	508	428	0	491	39	8	
9	0	0	0	0	504	440	0	507	39	8	
10	0	0	0	0	514	451	0	505	39	8	
11	0	0	0	0	498	451	0	503	39	8	
12	0	0	0	0	502	449	0	505	39	8	
13	0	0	0	0	510	449	0	500	39	8	
14	0	0	0	0	514	450	0	495	39	8	
15	0	0	0	0	499	459	0	488	39	8	
0	0	0	0	0	504	467	0	484	39	8	
1	0	0	0	0	500	470	0	481	39	8	
2	0	0	0	0	504	470	0	495	39	8	
3	0	0	0	0	499	464	0	515	39	8	
4	0	0	0	0	508	462	0	515	39	8	
5	0	0	0	0	499	473	0	509	39	8	
6	0	0	0	0	502	483	0	501	39	8	
7	0	0	0	0	501	489	0	491	39	8	
8	0	0	0	0	507	494	0	486	39	8	
9	0	0	0	0	502	487	0	486	39	8	
10	0	0	0	0	498	472	0	507	39	8	
11	0	0	0	0	511	465	0	515	39	8	
12	0	0	0	0	508	469	0	508	39	8	
13	0	0	0	0	510	480	0	504	39	8	
14	0	0	0	0	507	482	0	496	39	8	
15	0	0	0	0	505	492	0	493	39	8	
0	0	0	0	0	504	490	0	505	39	8	
1	0	0	0	0	504	479	0	513	39	8	
2	0	0	0	0	497	477	0	509	39	8	
3	0	0	0	0	504	473	0	502	39	8	
4	0	0	0	0	497	466	0	496	39	8	
5	0	0	0	0	498	459	0	487	39	8	
6	0	0	0	0	499	463	0	481	39	8	
7	0	0	0	0	503	466	0	478	39	8	
8	0	0	0	0	503	467	0	478	39	8	
9	0	0	0	0	504	471	0	498	39	8	
10	0	0	0	0	504	469	0	504	39	8	
11	0	0	0	0	503	465	0	499	39	8	
12	0	0	0	0	503	465	0	492	39	8	
13	0	0	0	0	506	470	0	491	39	8	
14	0	0	0	0	510	471	0	498	39	8	
15	0	0	0	0	512	472	0	492	39	8	
0	0	0	0	0	505	475	0	502	39	8	
1	0	0	0	0	497	477	0	516	39	8	
2	0	0	0	0	500	484	0	513	39	8	
3	0	0	0	0	499	485	0	505	39	8	
4	0	0	0	0	504	481	0	496	39	8	
5	0	0	0	0	511	473	0	488	39	8	
6	0	0	0	0	502	472	0	481	39	8	
7	0	0	0	0	497	474	0	472	39	8	
8	0	0	0	0	500	478	0	472	39	8	
9	0	0	0	0	505	481	0	487	39	8	
10	0	0	0	0	506	485	0	500	39	8	
11	0	0	0	0	499	488	0	496	39	8	
12	0	0	0	0	504	487	0	489	39	8	
13	0	0	0	0	501	486	0	486	39	8	
14	0	0	0	0	506	480	0	477	39	8	
15	0	0	0	0	509	472	0	472	39	8	
0	0	0	0	0	504	464	0	479	39	8	
1	0	0	0	0	494	464	0	494	39	8	
2	0	0	0	0	503	465	0	496	39	8	
3	0	0	0	0	508	466	0	488	39	8	
4	0	0	0	0	499	465	0	483	39	8	
5	0	0	0	0	500	467	0	479	39	8	
6	0	0	0	0	502	473	0	471	39	8	
7	0	0	0	0	500	483	0	467	39	8	
8	0	0	0	0	503	491	0	463	39	8	
9	0	0	0	0	500	495	0	479	39	8	
10	0	0	0	0	507	497	0	497	39	8	
11	0	0	0	0	504	489	0	499	39	8	
12	0	0	0	0	509	480	0	496	39	8	
13	0	0	0	0	499	473	0	497	39	8	
14	0	0	0	0	501	475	0	489	39	8	
15	0	0	0	0	503	473	0	492	39	8	
0	0	0	0	0	500	472	0	507	39	8	
1	0	0	0	0	508	465	0	508	39	8	
2	0	0	0	0	503	470	0	499	39	8	
3	0	0	0	0	503	483	0	489	39	8	
4	0	0	0	0	503	486	0	483	39	8	
5	0	0	0	0	501	489	0	473	39	8	
6	0	0	0	0	504	494	0	468	39	8	
